R,G,B
69.44114494,67.07107633,63.98274014
69.51447256,67.25868353,64.49453259
69.73595626,67.42270583,64.46001286
70.01597341,67.62918096,64.55328045
70.13850772,67.81453688,64.62307033
70.14504717,68.05735420,64.75611063
70.30553173,68.26393654,65.00728988
70.38336192,68.49571184,64.98820755
70.46987564,68.72845197,65.16884648
70.59165952,68.96730274,65.33072470
70.68921527,69.22051887,65.37081904
70.78430532,69.45947684,65.57418525
70.90008576,69.68353345,65.68053173
71.00943396,69.90137221,65.80510292
71.14440395,70.16691681,65.96065609
71.19596913,70.34026587,65.99120926
71.28366209,70.55102916,66.07375643
71.44050172,70.83329760,66.34273156
71.48542024,71.02165523,66.39729846
71.55917667,71.24120926,66.58426244
71.12328473,70.69768439,66.07011149
70.44135935,69.51125643,65.38711407
70.06839623,68.61470840,64.94532590
69.98595626,68.37103345,64.81721698
69.82997427,68.09026587,64.72362779
69.62692967,67.70904803,64.51114923
69.50814751,67.38786449,64.35891938
69.53998714,67.40769726,64.42806604
69.83265437,67.83265437,64.68514151
69.87939537,67.96430103,64.72437822
69.85806175,67.93760720,64.66916810
69.37875214,67.52262007,64.17334906
69.50439537,67.69414666,64.23016724
69.64022298,67.88143225,64.38850772
69.70701115,68.03977273,64.48531304
69.88754288,68.32279160,64.59037307
69.98520583,68.51050600,64.68717839
70.02594340,68.67452830,64.76307890
70.14987136,68.84927101,64.90694683
70.19907804,69.01790309,64.95851201
70.31485849,69.22459262,65.05306604
70.36674528,69.37510720,65.15255146
70.49163808,69.60077187,65.25536021
70.52133362,69.76554460,65.36781732
70.65855489,70.00010720,65.49689108
70.68685678,70.16756003,65.61953259
70.75385935,70.35398799,65.63636364
70.86449400,70.55724700,65.79052316
70.91144940,70.71226415,65.85420240
71.00568182,70.90448113,65.98038165
71.00439537,71.03569897,66.04084477
70.46526587,70.27873070,65.50686106
69.82847341,69.02315609,64.77165523
69.43514151,68.14504717,64.36331475
69.36138508,67.82665094,64.19929245
69.20518868,67.44639794,64.03945111
68.98584906,67.00085763,63.85184391
68.82397084,66.69875643,63.72512864
68.97555746,66.83747856,63.78473413
69.18964408,67.13754288,64.03419811
69.11610206,67.12339194,63.96880360
69.10195111,67.08822899,63.94286021
69.11020583,67.06582333,63.90737564
69.25375214,67.27004717,64.05713979
69.40823328,67.47491424,64.20604631
69.51243568,67.65673242,64.26586621
69.62982419,67.83479846,64.38454117
69.65651801,67.99378216,64.41273585
69.77594340,68.14858491,64.54909949
69.84927101,68.29909949,64.65887650
69.93867925,68.48456261,64.74421098
70.01672384,68.63078902,64.83233276
70.07997427,68.77594340,64.86921098
70.21226415,69.02422813,65.01886792
70.31346484,69.23198971,65.16230703
70.39108062,69.38228988,65.26951115
70.36202830,69.40683962,65.19671955
69.70990566,68.47148370,64.54502573
69.03634220,67.20272298,63.91798885
68.72148370,66.47277015,63.57504288
68.59208834,66.15126501,63.44286021
68.37446398,65.72587907,63.21301458
68.21151372,65.29491852,62.98938679
68.06260720,65.05167238,62.79180961
68.28580617,65.29073756,63.08962264
68.57139794,65.74742710,63.34927101
68.53451973,65.78409091,63.29116638
68.54888508,65.79331046,63.31367925
68.61803173,65.90190823,63.38389794
68.81046312,66.17045455,63.61385077
68.92988851,66.36513722,63.71912521
69.02508576,66.65523156,63.83361921
69.17066895,66.89708405,64.01436535
69.19554031,67.08340480,63.97791595
69.37189108,67.31335763,64.21280017
69.43621355,67.44972127,64.29577616
69.55971269,67.73402659,64.36395798
69.69886364,67.92999571,64.51961835
69.78505575,68.12339194,64.56228559
69.97898799,68.41359348,64.80381647
70.05038593,68.58855060,64.89987136
70.18717839,68.87843053,65.00385935
70.26725986,69.07729417,65.11052744
70.34401801,69.27776587,65.22180532
70.45497427,69.53023156,65.32161235
70.58308319,69.78291166,65.49989280
70.66873928,70.00771870,65.54202401
70.63421955,70.06260720,65.56346484
69.99614065,69.17860206,64.92602916
69.23960120,67.71237136,64.18192539
68.89440395,66.99024443,63.83394082
68.83136792,66.81485849,63.75246569
68.67677959,66.46129931,63.49195969
68.46944683,66.08479846,63.33136792
68.33994425,65.74710549,63.18021012
68.47898799,65.88893654,63.30703259
68.78698542,66.41112779,63.62189108
68.95475986,66.69746998,63.76500858
68.94436106,66.73831475,63.74388937
69.02154803,66.84208834,63.79942110
69.18803602,67.11663808,63.98413379
69.34680532,67.37853774,64.11138508
69.50203688,67.71687393,64.27605060
69.65490995,67.97330617,64.45036449
69.74013722,68.24228130,64.47877358
69.93460549,68.54759863,64.65909091
69.97888079,68.77712264,64.78226844
70.14247427,69.06099914,64.96794597
70.22866638,69.27798027,65.06421527
70.41144940,69.61149228,65.28666381
70.45872642,69.86996141,65.36245712
70.57472127,70.12189108,65.53441252
70.68171098,70.40147942,65.64461835
70.74656947,70.59862779,65.72512864
70.86127787,70.92560034,65.90437393
70.96944683,71.18514151,66.06335763
71.11074185,71.46644511,66.19757719
71.19039451,71.70540309,66.35913379
71.02154803,71.53870069,66.19135935
70.31882504,70.57804460,65.53602058
69.86245712,69.73745712,65.06035592
69.81678816,69.54513293,64.98874357
69.76275729,69.37060463,64.89976415
69.60184391,69.10977702,64.74742710
69.45872642,68.81657376,64.50696827
69.44082333,68.74828473,64.48949400
69.68524871,69.09669811,64.78259005
69.84219554,69.40158662,64.95325901
69.82364923,69.45143654,64.96494425
69.82107633,69.48145369,64.96837479
69.84755575,69.57847341,64.98692110
69.98349057,69.81239280,65.17281304
70.08308319,70.04834906,65.27497856
70.17913808,70.26168525,65.43685678
70.29770583,70.48874357,65.50932676
70.31024871,70.64236707,65.57697256
70.48059605,70.88432676,65.70079331
70.50085763,70.99764151,65.74635506
70.62092624,71.20733276,65.88486278
70.71612350,71.41723842,66.01050600
70.75407376,71.57611492,66.04052316
70.83619211,71.78001715,66.12735849
70.90469554,72.03012436,66.27304889
71.02626501,72.27412093,66.46344340
71.05360206,72.49399657,66.57246998
71.13507719,72.68953688,66.67517153
71.10012864,72.78666381,66.73327616
70.67710120,72.11320755,66.27379931
70.15512436,71.08008148,65.68106775
69.98488422,70.61760292,65.40340909
69.94993568,70.46087050,65.32386364
69.83168954,70.23198971,65.19489708
69.71944683,69.96365780,65.09273156
69.66402230,69.76650943,64.97469983
69.90576758,70.02219125,65.24689108
70.03741424,70.25203688,65.34959262
69.90008576,70.14043739,65.24356775
69.90769726,70.10323756,65.24603345
69.93910806,70.12285592,65.24742710
70.02990995,70.27476415,65.37746569
70.14440395,70.43878645,65.44800600
70.20497427,70.57547170,65.57783019
70.30456690,70.77647942,65.69286021
70.35034305,70.85098628,65.73134648
70.44018010,70.99356775,65.81603774
70.49388937,71.11888937,65.89654803
70.46312178,71.23520583,65.81110635
70.60570326,71.38593482,65.99378216
70.65759005,71.54631218,66.06475129
70.74807033,71.79759863,66.23434820
70.83383362,71.90222985,66.28451973
70.91938250,72.11470840,66.30574614
70.80767581,72.05317324,66.30317324
70.24517581,71.10774014,65.76061321
69.68685678,70.04148799,65.11052744
69.46301458,69.49839194,64.86953259
69.42270583,69.23681389,64.76082762
69.22116209,68.80478130,64.50889794
69.08501286,68.40855489,64.29427530
68.99281732,68.15255146,64.23081046
69.20808319,68.35623928,64.40062178
69.41134220,68.61417238,64.56378645
69.33812178,68.52615780,64.47598628
69.31282161,68.46312178,64.42774443
69.32686535,68.50139365,64.43192539
69.50064322,68.72062607,64.60956261
69.59584048,68.88786449,64.73091767
69.66412950,69.03441252,64.78677101
69.76522298,69.21012007,64.89301029
69.74260292,69.31207118,64.92463551
69.86267153,69.48145369,65.01597341
69.99774871,69.67313465,65.17828045
70.04191681,69.78998714,65.23531304
70.14976415,69.97673671,65.29491852
70.21472985,70.14161664,65.43535592
70.29813465,70.35130789,65.57236278
70.33704974,70.46676672,65.58383362
70.41670240,70.69114494,65.66069897
70.60120069,70.92367067,65.86620926
70.63840051,71.05113636,65.92635077
70.64772727,71.12307033,65.92324185
70.03301887,70.27229846,65.29716981
69.28473413,68.89879931,64.58447684
68.99989280,68.06657376,64.21901801
68.90072899,67.69511149,64.03366209
68.73359777,67.26790309,63.83544168
68.44039451,66.71140652,63.54545455
68.29105918,66.36417238,63.32900943
68.33072470,66.37231990,63.40298027
68.68042453,66.79706261,63.74560463
68.78580617,67.00021441,63.83662093
68.73574185,66.94521870,63.77390652
68.80767581,67.02551458,63.81432247
68.94843482,67.21022727,63.94071612
69.13411235,67.50139365,64.07793739
69.25385935,67.70797599,64.26736707
69.36556604,67.91423671,64.28966552
69.47716552,68.09916381,64.42013293
69.57472127,68.32171955,64.51704545
69.68685678,68.50825472,64.64204545
69.75139365,68.66734563,64.71858919
69.86963979,68.93739280,64.86856775
69.95561750,69.09433962,64.93803602
70.05167238,69.34541166,65.09133791
70.20240137,69.58833619,65.24313894
70.22148370,69.73584906,65.31153516
70.35002144,69.97845197,65.42077616
70.43042453,70.14804889,65.53141081
70.46740995,70.33704974,65.55789022
70.59680532,70.58587050,65.73209691
70.66691681,70.78334048,65.86267153
70.62500000,70.79009434,65.81046312
69.83822899,69.61095626,65.04020154
69.14772727,68.16144940,64.33083190
68.79931389,67.31110635,63.85098628
68.71633791,67.01693825,63.80789022
68.51758148,66.67795883,63.59198113
68.26811750,66.18278302,63.24388937
68.12875214,65.84273156,63.11888937
68.24892796,65.99485420,63.26050600
68.64922813,66.53880789,63.61963979
68.67034734,66.65340909,63.64890652
68.66037736,66.64858491,63.61127787
68.72244854,66.73359777,63.69350343
68.87875214,66.95765437,63.84830617
69.06582333,67.20733276,64.00407376
69.15147942,67.43063894,64.06764580
69.33394082,67.70165094,64.19779160
69.44629074,67.89247427,64.29620497
69.56121355,68.12832333,64.45293739
69.64579760,68.32975986,64.54416810
69.75750429,68.50986278,64.67131218
69.89376072,68.74667667,64.77883791
69.89740566,68.90169383,64.82557890
70.10216552,69.19629074,65.01833190
70.15147942,69.39033019,65.14847770
70.28473413,69.61363636,65.19018010
70.34412521,69.81989708,65.30445969
70.37575043,69.97866638,65.38925815
70.44886364,70.22930961,65.52626501
70.60259434,70.44071612,65.65555317
70.67656518,70.64719125,65.82064751
70.68321184,70.73295455,65.81893225
70.08747856,69.94554031,65.25385935
69.25407376,68.33554889,64.39451115
68.77519297,67.22566467,63.80242281
68.70272298,66.93021012,63.71537307
68.55874786,66.65608919,63.56839623
68.38003859,66.27433533,63.33908662
68.26136364,65.95325901,63.17945969
68.43964408,66.15748285,63.37189108
68.73949400,66.64472556,63.73542024
68.73284734,66.68074614,63.67538593
68.74131647,66.69757719,63.65984134
68.74678388,66.70047170,63.64815609
68.89837050,66.92667238,63.84155232
69.05145798,67.11749571,63.93803602
69.27798027,67.42763722,64.13797170
69.39847770,67.70872642,64.22009005
69.45979846,67.86202830,64.35302316
69.55274443,68.05403087,64.40030017
69.63754288,68.21215695,64.47094768
69.75471698,68.40287307,64.61706690
69.85570326,68.63207547,64.69918525
69.93128216,68.83608491,64.80521012
70.03912950,69.05821184,64.96987564
70.14365352,69.28387650,65.08490566
70.30563894,69.57193396,65.20679674
70.35409520,69.71580189,65.31550172
70.27530017,69.70604631,65.27744425
69.50064322,68.56925386,64.57204117
68.70679674,67.02154803,63.73745712
68.44050172,66.32129074,63.38111063
68.37221269,66.07268439,63.27894511
68.23777873,65.82504288,63.13743568
68.07118353,65.46440823,62.97169811
68.06882504,65.33533448,62.89601201
68.34541166,65.72341338,63.20754717
68.54716981,66.09369640,63.41016295
68.53441252,66.12746569,63.40919811
68.55049314,66.13346913,63.34358919
68.66112779,66.26104202,63.48445540
68.84423242,66.54792024,63.59337479
69.00503859,66.82450686,63.81142796
69.15630360,67.10613208,63.95004288
69.26007719,67.32096913,64.12092624
69.37178388,67.52915952,64.19403945
69.51361492,67.79470412,64.33672813
69.60377358,67.96119211,64.38786449
69.72662950,68.18953688,64.47641509
69.82129074,68.36974700,64.58222556
69.96247856,68.63829331,64.77487136
70.07750858,68.86545883,64.89118782
70.17838765,69.05981990,65.02229846
70.27444254,69.30831904,65.15887650
70.37843053,69.54631218,65.30681818
70.51586621,69.81110635,65.43589194
70.52540738,69.93964408,65.41584477
70.11481561,69.44414666,65.00460978
69.07579331,67.64011578,64.10902659
68.37982419,66.29534734,63.31250000
68.23306175,65.75300172,63.14451115
68.13304031,65.48960120,62.95808319
67.96194254,65.12253431,62.74860635
67.69907804,64.68171098,62.44736278
67.68010292,64.49378216,62.43417667
68.05038593,64.95218696,62.75879074
68.27272727,65.36792453,63.02229846
68.29213122,65.41948971,63.04770583
68.29030875,65.43310463,63.05274443
68.41305746,65.62146226,63.13668525
68.62060463,65.90426672,63.34037307
68.74581904,66.20701115,63.45593911
68.88196827,66.47587907,63.58158233
68.97062607,66.64858491,63.63679245
69.16584477,66.92978130,63.92656518
69.25761149,67.13689966,63.91391509
69.38872213,67.34841338,64.11149228
69.49689108,67.59959262,64.28226844
69.61535163,67.80981990,64.35634648
69.74474700,68.06635935,64.38689966
69.85280875,68.25439537,64.52605060
69.96355060,68.49571184,64.67324185
70.10698971,68.74656947,64.82054031
70.22030446,68.98038165,64.92099057
70.37789451,69.24774871,65.07579331
70.38046741,69.42163379,65.07707976
69.96590909,68.88915094,64.75514580
68.89429674,67.08747856,63.71290738
68.29148799,65.81421527,63.12467839
68.14686964,65.37735849,62.86556604
68.08533448,65.10784734,62.69060892
67.84476844,64.66316467,62.46569468
67.64526158,64.23038165,62.21901801
67.69950686,64.18985849,62.23466981
68.03398370,64.64697684,62.56593053
68.28334048,65.11417238,62.78248285
68.27787307,65.14451115,62.77079760
68.32354202,65.18267581,62.79223842
68.43942967,65.36931818,62.92677959
68.60184391,65.60141509,63.09755575
68.83040309,65.93289022,63.30939108
68.98745712,66.23359777,63.42956690
69.12028302,66.46505146,63.54288165
69.18235420,66.71601630,63.62467839
69.35999142,66.96290738,63.79202401
69.49024443,67.18728559,63.90190823
69.54266724,67.38679245,63.94982847
69.76179245,67.69446827,64.18160377
69.86299314,67.92710120,64.33619211
69.98209691,68.15490995,64.43792882
70.12006861,68.42088336,64.57975986
70.25900515,68.61599485,64.68825043
70.39000858,68.89108062,64.81668096
70.50407376,69.11213551,64.95390223
70.63593482,69.39022298,65.13593482
70.74635506,69.59712693,65.17731561
70.56132075,69.43932247,65.04373928
69.58865780,67.97759434,64.15619640
68.78355489,66.46108491,63.32579331
68.65405232,65.91691681,63.01961835
68.58490566,65.65994854,62.96869640
68.45701115,65.34680532,62.76232847
68.20175815,64.91873928,62.44446827
68.22984563,64.84133791,62.45433105
68.56700257,65.24174528,62.82086192
68.68825043,65.52937393,63.02572899
68.68353345,65.53173242,62.97748714
68.65941252,65.50353774,62.94093053
68.75932676,65.65383791,62.99410377
68.92892367,65.93321184,63.19371784
69.09187393,66.18814322,63.32922384
69.23327616,66.44854202,63.52830189
69.32783019,66.70454545,63.67731561
69.43610635,66.91938250,63.72234134
69.51050600,67.10120069,63.76715266
69.63153945,67.29877787,63.87725129
69.71076329,67.51029160,63.95540309
69.77497856,67.66563036,64.13411235
69.92463551,67.94093053,64.25932676
70.08662093,68.19725557,64.38636364
70.20743997,68.45743997,64.52090480
70.29105918,68.61460120,64.57858062
70.20197256,68.58769297,64.51650943
69.34080189,67.38111063,63.73123928
68.54320326,65.82214837,62.98445540
68.40876930,65.24131647,62.61052744
68.35205832,65.00257290,62.50943396
68.20861921,64.71054889,62.35205832
68.01972556,64.29545455,62.13164666
68.01243568,64.27465695,62.15501715
68.35377358,64.69210978,62.55853345
68.44746998,64.93717839,62.58897942
68.39815609,64.95990566,62.58576329
68.34723413,64.91584477,62.50460978
68.47748714,65.07311321,62.58276158
68.66702401,65.35055746,62.80574614
68.81003431,65.66445111,62.99871355
68.91948971,65.95250858,63.16284305
68.99946398,66.10859777,63.19972127
69.13679245,66.38507719,63.39322470
69.21730274,66.53762864,63.46966123
69.33501286,66.73702830,63.64740566
69.40619640,66.94864923,63.64933533
69.56400086,67.17913808,63.77283448
69.68406947,67.44093053,63.93364065
69.72309177,67.64097341,64.00568182
69.86117067,67.87467839,64.19822041
69.91584477,68.02240566,64.24689108
70.11824614,68.33544168,64.45315180
70.19864923,68.52090480,64.52883791
70.24421098,68.66938250,64.62542882
70.12307033,68.59155232,64.53108919
69.06014151,67.03012436,63.52240566
68.22512864,65.36470840,62.65909091
67.88743568,64.53216123,62.15330189
67.80596055,64.24742710,62.07054031
67.59487564,63.79663379,61.81657376
67.27840909,63.24946398,61.54084477
67.11813894,62.96740995,61.39129503
67.26500858,63.08747856,61.45347341
67.65619640,63.62768010,61.87231990
67.61771012,63.73048885,61.86985420
67.63143225,63.72191252,61.84927101
67.68439108,63.82075472,61.90566038
67.82750858,64.07064751,62.02733705
68.00750429,64.35891938,62.25171527
68.19511149,64.68331904,62.43310463
68.28677101,64.94500429,62.55456690
68.39065180,65.12800172,62.65394511
68.52862350,65.39783448,62.78955832
68.58147513,65.62778731,62.88786449
68.73917238,65.84058748,63.02733705
68.84326758,66.09991424,63.18439108
68.97780875,66.39440395,63.30306604
69.09787736,66.65984134,63.45465266
69.19275300,66.88421955,63.56367925
69.31421527,67.12060463,63.71044168
69.43953688,67.41252144,63.77551458
69.56035592,67.68171098,63.94200257
69.69339623,67.91959691,64.12564322
69.78162521,68.11417238,64.22566467
69.28076758,67.58951544,63.78527015
68.28644940,65.97148370,62.88593482
67.72877358,64.91402230,62.22770154
67.61556604,64.53494854,62.03494854
67.52958834,64.26629503,61.91230703
67.34809177,63.87639365,61.70958405
67.10066467,63.47394940,61.39225986
67.06496569,63.42560034,61.39515437
67.40801887,63.86106346,61.74228130
67.53398370,64.15919811,61.88968696
67.47759434,64.19650515,61.84294597
67.51586621,64.24056604,61.88829331
67.62178388,64.42560034,61.98670669
67.72930961,64.74581904,62.18792882
67.84884220,65.01693825,62.26715266
68.03698542,65.29856346,62.50332333
68.05328045,65.49110206,62.54063036
68.17420669,65.70722556,62.69521870
68.28816467,66.02851630,62.85913379
68.43299743,66.29384648,62.97094768
68.53355489,66.53548456,63.10902659
68.63915094,66.78409091,63.24592624
68.74678388,67.02787307,63.33469125
68.83544168,67.26468696,63.44972127
68.98670669,67.54459691,63.62156947
69.07858062,67.79577616,63.73659949
69.13111063,67.99410377,63.85645369
69.17024014,68.22341338,64.02530017
69.25632504,68.42184820,64.04513293
69.40319468,68.74539022,64.24110206
69.48724271,68.98038165,64.37768010
69.51822470,69.20004288,64.52465695
69.43707118,69.21001286,64.46022727
68.59991424,68.05017153,63.64301029
67.86867496,66.79534734,62.92034734
67.61942539,66.21483705,62.58940823
67.56024871,66.00750429,62.51415094
67.44286021,65.81743139,62.42613636
67.18717839,65.40115780,62.21290738
67.04792024,65.20679674,62.06850343
67.18653516,65.37049743,62.18567753
67.38829331,65.67602916,62.43460549
67.37114065,65.70111492,62.44382504
67.27465695,65.60870497,62.30596055
67.31936106,65.66841767,62.34980703
67.33619211,65.78151801,62.36642367
67.48263293,65.97427101,62.51500858
67.61331475,66.19178816,62.70422384
67.67442110,66.39075901,62.78484134
67.80081475,66.57718696,62.95132933
67.82289880,66.70068611,62.91981132
67.87199828,66.82933105,63.02144082
67.92677959,67.06228559,63.12832333
67.98949400,67.18674957,63.18374786
68.07922384,67.38454117,63.33651372
68.14118782,67.58179674,63.46001286
68.21676672,67.79352487,63.58619211
68.30124357,68.00986278,63.69811321
68.37575043,68.15040738,63.74796312
68.45754717,68.37607204,63.92195540
68.29009434,68.18846484,63.74957118
67.48402659,67.01039880,62.96172813
66.87231990,65.80349485,62.28591338
66.71451544,65.33715695,62.09037307
66.66177101,65.12167667,61.98188250
66.47737993,64.81614494,61.80649657
66.30488851,64.44832762,61.61578045
66.32600772,64.41798885,61.63389794
66.58780017,64.70829760,61.89311750
66.57965266,64.81314322,61.88561321
66.52337050,64.73670669,61.85613208
66.50139365,64.70036449,61.84894940
66.55981990,64.74356775,61.90523156
66.75696827,65.00203688,62.05092196
66.84187393,65.16177101,62.19543310
66.96258576,65.38496998,62.27176244
66.97394940,65.51490137,62.27969554
67.08790738,65.66638079,62.41938250
67.19210978,65.83104631,62.53044597
67.23370497,65.90008576,62.60355918
67.29899228,66.11009863,62.64440395
67.40458834,66.30338765,62.80038593
67.50278731,66.49099485,62.85441681
67.59262436,66.71655232,63.01822470
67.71526587,66.98606346,63.10355918
67.75407376,67.16123499,63.25385935
67.42099057,66.71816038,62.87982419
66.56400086,65.30220840,62.10881218
65.93910806,64.06539451,61.39086621
65.73949400,63.58662093,61.15373070
65.61427959,63.28087479,60.98263293
65.44028731,62.83093911,60.74753431
65.22191252,62.36642367,60.43224700
65.19114494,62.21280017,60.39847770
65.46183533,62.59069468,60.64686964
65.57890223,62.76951115,60.80124357
65.53226844,62.74153087,60.78226844
65.51704545,62.73831475,60.78612779
65.64601201,62.89901372,60.91295026
65.80917667,63.12092624,61.08276158
65.93224700,63.32182676,61.20411664
66.08072470,63.58865780,61.33372642
66.19650515,63.75203688,61.43728559
66.34305317,64.02315609,61.62006861
66.41927530,64.16970412,61.64804889
66.53462693,64.37253431,61.86074185
66.69050172,64.64204545,61.94650515
66.73102487,64.79448971,62.00289451
66.92163379,65.07064751,62.21816038
66.97866638,65.22030446,62.28977273
67.17560034,65.49399657,62.47684391
67.26693825,65.73391938,62.55724700
67.41584477,66.01661664,62.75160806
67.47159091,66.20829760,62.85495283
67.32729417,66.14997856,62.67806604
66.49131647,64.89011578,61.94714837
65.69082333,63.46976844,61.10720412
65.46194254,62.83051029,60.78055317
65.39011578,62.58029588,60.67184820
65.18664237,62.16927530,60.42549314
65.00085763,61.77487136,60.18889365
64.84809177,61.46837479,59.99346055
65.09155232,61.71012007,60.22405660
65.35720412,62.15651801,60.52058319
65.43760720,62.33233276,60.60591767
65.42131218,62.34133791,60.60999142
65.44414666,62.42849485,60.61846055
65.61492281,62.71440823,60.84541166
65.81046312,63.00900515,61.03623499
65.95668954,63.28666381,61.20433105
66.11363636,63.55167238,61.28173242
66.19318182,63.78023156,61.45797599
66.37317753,64.05521012,61.63968696
66.49078045,64.26457976,61.75085763
66.62885935,64.49249571,61.88271870
66.75943396,64.72620069,62.06003431
66.83758576,64.97545026,62.15512436
67.01168525,65.25611063,62.29749142
67.09659091,65.49581904,62.40169383
67.28934391,65.74131647,62.62424957
67.41048456,66.00718268,62.71730274
67.52337050,66.21719554,62.84498285
67.63925815,66.47287736,63.03719983
67.70979846,66.69843482,63.09080189
67.79180961,66.95797599,63.23734991
67.88893654,67.16080617,63.29952830
68.05628216,67.45165094,63.49238851
68.16948971,67.68878645,63.66584477
68.27787307,67.94596913,63.74978559
67.84123070,67.47630789,63.40448113
66.86363636,65.82096913,62.44189537
66.33769297,64.66209262,61.81603774
66.18299743,64.19328902,61.57772298
66.09026587,63.98563465,61.51758148
65.83812178,63.54695540,61.20711835
65.68321184,63.18728559,61.03291166
65.64987136,63.05981990,60.99549743
65.91477273,63.42570755,61.29749142
66.12317753,63.77240566,61.46558748
66.10388079,63.77154803,61.43364065
66.12382075,63.81936106,61.43557033
66.21162093,63.95004288,61.53559177
66.34669811,64.16423671,61.65137221
66.51575901,64.43492710,61.81914666
66.65533877,64.65748285,61.96044168
66.80467410,64.90973413,62.15587479
66.91573756,65.11256432,62.22191252
67.09037307,65.32214837,62.45508148
67.15726844,65.49989280,62.45250858
67.23198971,65.72727273,62.56046312
67.40834048,65.96087050,62.73381218
67.52347770,66.13968696,62.78462693
67.66273585,66.35398799,62.93996569
67.71687393,66.55606775,63.02926672
67.87124786,66.81807461,63.24088765
68.01876072,67.05135077,63.35645369
68.09691252,67.25128645,63.40737564
68.20068611,67.48091767,63.61213551
67.97587907,67.22073328,63.37832333
67.21762436,65.92324185,62.62349914
66.56303602,64.68739280,61.89065180
66.40791166,64.23745712,61.75332333
66.32772298,64.00075043,61.58972985
66.18021012,63.72587907,61.42056175
66.03548456,63.43192539,61.27562178
66.10934820,63.49742710,61.34798456
66.45475986,63.97641509,61.70283019
66.48863636,64.08168954,61.73606346
66.48424099,64.03505575,61.69350343
66.51382933,64.08715695,61.71923242
66.64879931,64.26693825,61.86856775
66.85055746,64.53194683,62.10934820
66.99260292,64.76597341,62.17013293
67.18053173,65.03087479,62.35205832
67.29641938,65.25739708,62.46515866
67.34509005,65.42227702,62.54899228
67.47491424,65.60763293,62.66638079
67.56164237,65.76683105,62.73960120
67.67999571,65.95894082,62.88539880
67.84208834,66.20315180,63.02926672
67.92131218,66.41380789,63.12457118
68.07997427,66.63979417,63.29138079
68.19232419,66.90866209,63.34498285
68.31239280,67.13078902,63.54588336
68.45840480,67.35956261,63.65887650
68.44714837,67.38261149,63.66820326
67.88164666,66.51951115,63.09026587
66.99828473,64.95111492,62.24035163
66.57021870,64.09165952,61.74667667
66.45786878,63.75653945,61.60323756
66.33897942,63.48284734,61.45626072
66.09090909,63.07804460,61.23006003
65.97041166,62.84112350,61.09584048
66.17002573,63.02937393,61.25450257
66.48338336,63.51511578,61.58608491
66.63175386,63.75310892,61.76211407
66.57836621,63.71258576,61.70079331
66.64644082,63.81367925,61.70132933
66.87060463,64.07493568,61.94564751
67.04180961,64.38100343,62.09841338
67.18256861,64.63153945,62.28183962
67.30349485,64.86567324,62.44221698
67.45894082,65.13947256,62.54556175
67.56014151,65.35688250,62.68492710
67.68953688,65.54674099,62.79030875
67.86470840,65.81367925,62.94382504
67.98188250,65.98145369,63.07429245
68.13346913,66.28634220,63.16798885
68.25932676,66.48552744,63.29813465
68.43063894,66.75053602,63.50739708
68.55092196,66.96472985,63.60709691
68.61342196,67.14193825,63.67388508
68.85045026,67.44993568,63.90769726
68.91927530,67.63947256,64.00696827
69.10120069,67.92731561,64.12564322
69.09337479,67.97695111,64.19993568
68.35098628,66.93096055,63.46933962
67.47180532,65.29620497,62.68492710
67.00514580,64.36385077,62.05445969
66.91498714,64.06035592,61.92292024
66.70347341,63.71355060,61.76179245
66.54652659,63.35484563,61.54116638
66.41777444,63.03291166,61.33308319
66.53698542,63.14933533,61.44907804
66.94371784,63.71472985,61.83780017
67.09969983,64.01972556,62.03409091
67.08254717,64.03580617,62.00621784
67.16766724,64.09240995,62.08554889
67.32043310,64.37081904,62.23509863
67.53848628,64.66884648,62.43814322
67.68546312,64.90673242,62.60527444
67.87982419,65.23960120,62.75996998
67.93782161,65.40930532,62.82011149
68.09669811,65.65951973,63.05874786
68.18524871,65.84112350,63.09455403
68.38411235,66.10216552,63.29170240
68.50268010,66.35388079,63.41284305
68.63207547,66.57075472,63.51758148
68.78033877,66.82129074,63.66005575
68.84369640,66.98949400,63.74013722
69.05145798,67.33683533,63.85120069
69.20336621,67.56721698,64.02605060
69.30574614,67.80960549,64.17152659
69.48906518,68.06989708,64.36685249
69.54138079,68.27765866,64.44875643
69.75321612,68.59262436,64.60956261
69.84423242,68.82858062,64.74131647
70.02637221,69.12864494,64.90158662
70.06925386,69.30917667,64.99228130
70.20283019,69.56153516,65.18739280
70.32965266,69.81635935,65.28655660
70.43289022,70.11385077,65.38507719
70.59005146,70.38078902,65.63057461
70.37092624,70.15265866,65.40137221
69.42270583,68.60216552,64.40855489
68.64075901,66.97502144,63.64011578
68.44661235,66.39665523,63.30874786
68.38046741,66.19071612,63.26232847
68.18267581,65.81282161,63.00278731
68.00053602,65.38625643,62.78977273
67.90694683,65.11899657,62.69554031
68.13346913,65.40748285,62.90984134
68.41273585,65.81432247,63.13379074
68.48209691,65.99195969,63.22952401
68.43385506,65.99560463,63.19800600
68.52294168,66.08340480,63.26908233
68.66327187,66.36867496,63.37960978
68.82772298,66.61159949,63.55563894
68.98359777,66.88175386,63.70336621
69.14611921,67.13239708,63.83801458
69.26876072,67.40898370,64.02176244
69.37371355,67.60420240,64.07246998
69.49656947,67.79352487,64.20969125
69.62853774,68.05220840,64.27840909
69.74485420,68.26436535,64.40244425
69.94629074,68.54427530,64.64654803
70.04245283,68.77079760,64.71698113
70.17699400,69.04341767,64.88518439
70.24914237,69.24699828,65.00621784
70.34551887,69.44607633,65.10087907
70.48209691,69.70786878,65.25696827
70.55370926,69.91027015,65.33972985
70.70615352,70.14719125,65.53870069
70.74463979,70.35377358,65.60463122
70.73123928,70.40212264,65.62017581
70.06389365,69.32890223,64.86170669
69.30413808,67.86138508,64.14418954
68.96472985,67.10645369,63.70743997
68.90394511,66.90780446,63.61042024
68.83565609,66.74088765,63.57943825
68.65169383,66.37360635,63.34573328
68.61395798,66.23810034,63.31893225
68.85666810,66.57900943,63.58994425
69.03591338,66.84509005,63.71494425
69.02658662,66.87650086,63.67431389
68.98927959,66.82890223,63.65222985
69.07332762,66.90887650,63.71655232
69.24807033,67.14815609,63.88550600
69.40994854,67.44253859,64.04159520
69.52615780,67.67152659,64.21397942
69.59734134,67.80274443,64.19189537
69.75761149,68.03291166,64.40984134
69.83415523,68.20529588,64.42334906
69.94639794,68.43825043,64.58061750
70.01361492,68.61653087,64.63968696
70.19414666,68.83136792,64.80370926
70.29395369,69.03066038,64.87006861
70.33822899,69.17013293,64.93835763
70.48070326,69.48370497,65.10613208
70.56014151,69.65512436,65.25096484
70.68589194,69.89858491,65.38486278
70.69575472,69.98563465,65.44875643
70.19253859,69.29073756,64.90651801
69.32868782,67.73006003,64.05638937
68.77347770,66.65019297,63.47502144
68.62532161,66.33308319,63.31978988
68.49560463,65.99924957,63.17785163
68.30756861,65.58479846,62.98166810
68.17334906,65.25846913,62.82000429
68.21880360,65.28291166,62.88582762
68.58104631,65.79095197,63.19318182
68.70615352,65.95765437,63.28527015
68.65737564,65.97941681,63.24742710
68.70025729,66.00321612,63.29995712
68.82943825,66.20979846,63.39354631
69.00396655,66.47545026,63.57729417
69.12907376,66.74056604,63.78494854
69.27808748,66.98477702,63.87500000
69.33254717,67.12521441,63.93460549
69.47427101,67.41102058,64.06303602
69.54695540,67.58018868,64.12735849
69.67731561,67.79030875,64.28602058
69.79899228,67.99517581,64.40147942
69.87596484,68.19350343,64.45229417
70.03023156,68.46376501,64.65030017
70.09455403,68.66295026,64.67753002
70.19714837,68.86846055,64.74174528
70.35248714,69.16102058,64.98584906
70.43567753,69.32268439,65.08683533
70.54749142,69.53291166,65.18557033
70.56314322,69.70851201,65.23424099
70.68910806,69.92817324,65.39558319
70.79813465,70.14183105,65.52990995
70.89043739,70.36706690,65.67302744
70.77744425,70.32525729,65.57847341
69.86245712,68.97009005,64.71601630
68.88882933,67.14740566,63.73617067
68.48006003,66.17495712,63.20561750
68.34927101,65.83147513,63.08404803
68.16648799,65.45894082,62.86653087
67.93353345,64.99656947,62.63872213
67.71976844,64.59712693,62.42881647
67.82547170,64.69275300,62.53409091
68.22126930,65.22791595,62.91938250
68.31989708,65.43674957,62.98949400
68.30735420,65.45894082,62.97930961
68.30370926,65.50739708,62.96194254
68.48799314,65.76801029,63.15651801
68.69822041,66.03248285,63.37467839
68.83297599,66.31089194,63.52765866
68.96119211,66.55810463,63.64086621
69.07707976,66.75503859,63.73981561
69.15855489,67.03591338,63.78612779
69.27894511,67.19532590,63.96526587
69.39033019,67.41327187,64.07107633
69.51457976,67.67302744,64.21805317
69.55821184,67.85195111,64.20207976
69.73509863,68.08565609,64.39547599
69.85173671,68.29770583,64.49539022
69.96215695,68.57343482,64.68192539
70.11653087,68.81635935,64.82450686
70.19382504,69.01029160,64.89922813
70.30874786,69.25042882,65.03044597
70.37317753,69.44135935,65.11695969
70.48681389,69.66412950,65.27412093
70.55145798,69.88186106,65.40673242
70.71526587,70.18267581,65.57289880
70.83747856,70.41080617,65.72512864
70.73702830,70.37853774,65.65169383
69.85184391,69.09005146,64.80188679
68.78784305,67.13175386,63.71322899
68.34862779,66.17538593,63.18696398
68.22620069,65.84048027,63.03623499
68.12382075,65.56700257,62.92849485
67.84476844,65.10055746,62.62285592
67.73552744,64.75482419,62.50546741
67.85698971,64.87585763,62.61513722
68.16359348,65.39150943,62.88100343
68.28334048,65.65555317,63.01468696
68.23381218,65.62510720,62.97030446
68.27412093,65.66412950,63.02347770
68.40265866,65.85913379,63.15480274
68.62424957,66.19972127,63.33029588
68.77251286,66.50192967,63.50428816
68.85752573,66.73424099,63.60323756
69.06646655,67.03752144,63.82289880
69.13057461,67.17517153,63.86513722
69.22823756,67.42292024,63.96044168
69.30263722,67.58565609,64.05971269
69.46783877,67.80210120,64.18439108
69.59198113,68.05467410,64.32204117
69.68814322,68.25954117,64.43128216
69.86084906,68.58061750,64.63829331
69.95593911,68.79256003,64.76725986
70.05253002,69.04759863,64.86149228
70.15748285,69.20486707,64.97394940
70.23584906,69.40501715,65.10055746
70.31389365,69.63293310,65.19982847
70.37382075,69.80006432,65.25889794
70.48574185,70.02669383,65.42656518
70.55681818,70.25943396,65.53816467
70.63293310,70.48949400,65.63872213
70.13196827,69.89333190,65.18406947
69.07654374,68.04738422,64.15994854
68.31518010,66.47748714,63.30274443
68.11084906,65.93846484,63.05167238
68.08747856,65.79781304,63.00707547
67.90919811,65.48445540,62.81314322
67.73745712,65.18299743,62.58672813
67.78848628,65.18835763,62.67806604
68.08865780,65.64075901,62.95036449
68.19028731,65.86674528,63.08844340
68.11813894,65.81668096,63.01157804
68.12896655,65.82193396,63.04063036
68.26329331,65.99228130,63.14022298
68.44328902,66.28827187,63.33672813
68.61224271,66.58587050,63.52369211
68.72695111,66.80392367,63.63968696
68.81164237,67.05992710,63.72266295
68.93085334,67.25889794,63.81593053
69.07289880,67.46612350,63.96140652
69.20015009,67.70529588,64.05585334
69.23702830,67.80692539,64.10237993
69.37328473,68.06753859,64.24699828
69.45325901,68.27551458,64.36213551
69.65030017,68.57332762,64.59498285
69.73842196,68.79909949,64.66209262
69.77358491,68.98241852,64.78473413
69.88475557,69.16863208,64.87832333
69.93728559,69.38432676,64.95808319
70.05060034,69.64129503,65.12542882
70.15705403,69.85087907,65.24796312
69.89997856,69.61931818,65.00310892
68.86931818,67.92184820,64.00889794
67.85323756,66.05928388,63.02605060
67.54631218,65.28687822,62.62650086
67.44972127,64.99667667,62.45765437
67.31067753,64.70518868,62.28987993
67.08769297,64.27379931,62.04288165
66.96805317,64.04545455,61.89579760
67.19446827,64.34412521,62.13207547
67.50482419,64.84873499,62.40984134
67.57997427,65.00986278,62.49356775
67.47727273,64.90544597,62.47448542
67.57354202,65.05360206,62.53537736
67.71054889,65.28837907,62.69596913
67.91573756,65.65051458,62.90844768
68.08479846,65.95358062,63.03719983
68.18921527,66.20336621,63.12832333
68.28784305,66.44564751,63.30177959
68.39815609,66.61771012,63.37285592
68.53001715,66.85720412,63.51650943
68.62135506,67.02272727,63.61578045
68.79652659,67.31410806,63.78580617
68.90244425,67.54909949,63.92045455
69.03119640,67.78162521,64.03934391
69.14697684,68.06807461,64.17785163
69.25310892,68.28484134,64.28891509
69.36921098,68.53602058,64.44875643
69.44843482,68.75653945,64.54834906
69.53634220,69.01018439,64.68492710
69.63068182,69.22030446,64.79899228
69.67720840,69.40362350,64.89697684
69.81432247,69.62564322,65.01758148
69.87189108,69.86374357,65.11545883
70.05285163,70.12939537,65.29534734
69.88743568,70.04931389,65.19468268
68.80188679,68.44554031,64.16509434
67.68031732,66.29202401,62.96805317
67.17677959,65.22695111,62.39075901
67.08597770,64.94060892,62.20668954
66.93964408,64.56485849,62.07900943
66.72180532,64.12489280,61.89697684
66.51189966,63.73552744,61.60109348
66.59551887,63.81335763,61.68235420
67.00182247,64.37939537,62.04856346
67.13882933,64.64397513,62.21001286
67.10023585,64.67163379,62.17892367
67.11781732,64.72159091,62.17699400
67.27315609,64.97191252,62.37114065
67.42238422,65.27144082,62.52615780
67.64729846,65.60441681,62.78216123
67.77830189,65.92131218,62.87993139
67.92474271,66.13036021,63.00836192
68.03269726,66.34894940,63.14183105
68.14161664,66.61395798,63.26747427
68.32118353,66.90887650,63.39386792
68.41134220,67.13711407,63.51790309
68.54534734,67.39140223,63.65490995
68.67056175,67.70379503,63.82236278
68.79341767,67.97480703,63.97888079
68.90169383,68.24346055,64.10988422
68.93867925,68.46097770,64.18417667
69.11192110,68.77937393,64.36813894
69.22191252,69.04652659,64.44425386
69.30403087,69.30767581,64.63700686
69.42259863,69.52422813,64.74185249
68.78205403,68.79105918,64.19736278
67.81732419,67.18138937,63.25771870
67.24003002,65.98509863,62.54084477
67.16209262,65.66445111,62.42259863
67.05949828,65.42506432,62.27883791
66.85345197,65.08501286,62.01297170
66.68535592,64.74882075,61.86567324
66.63754288,64.67163379,61.82536449
66.96087050,65.10581046,62.11953259
67.09015866,65.34744854,62.23038165
67.03580617,65.40909091,62.24056604
67.04631218,65.42581475,62.21869640
67.18546312,65.62328473,62.36878216
67.32118353,65.91916810,62.51415094
67.37060463,66.13454117,62.58115352
67.55628216,66.41048456,62.76082762
67.62424957,66.64140223,62.90941252
67.75932676,66.94200257,63.04556175
67.82900943,67.14504717,63.12253431
67.90641081,67.31164237,63.23252573
68.00921955,67.57611492,63.39215266
68.12264151,67.79180961,63.51050600
68.12617925,67.98788593,63.55199400
68.24849914,68.26179245,63.70604631
68.38893654,68.52637221,63.87114065
68.48070326,68.79952830,64.02358491
68.56121355,69.01425815,64.14890652
68.51543739,69.02915952,64.12971698
67.65105060,67.93985849,63.36438679
66.87414237,66.60934820,62.53537736
66.58490566,65.95754717,62.19275300
66.63261149,65.87253431,62.16906089
66.54277444,65.66327187,62.12596484
66.38100343,65.34262436,61.89751286
66.34937822,65.23402659,61.90062178
66.57665094,65.54234563,62.07086192
66.69007290,65.82450686,62.26833190
66.66638079,65.77272727,62.26415094
66.58276158,65.69618353,62.14043739
66.66209262,65.81518010,62.20004288
66.77251286,65.97813036,62.28966552
66.87746569,66.21730274,62.45015009
66.94532590,66.42152659,62.57590051
67.05649657,66.64483276,62.73810034
67.15030017,66.83340480,62.81775300
67.13743568,66.97148370,62.76608062
67.25707547,67.15180103,62.97084048
67.29352487,67.23070326,62.95175815
67.42420669,67.45508148,63.10002144
67.50225129,67.62510720,63.25139365
67.64472556,67.85977702,63.34755575
67.77047599,68.05542453,63.48145369
67.85741852,68.24721269,63.60248714
67.81507290,68.32107633,63.56721698
67.08243997,67.35023585,62.95165094
66.27219125,65.92334906,62.04491852
65.94875643,65.01993997,61.67517153
65.90319468,64.72566467,61.49946398
65.78344768,64.46033448,61.41766724
65.62339194,64.11267153,61.14483276
65.53548456,63.83415523,61.05370926
65.76114923,64.07354202,61.25128645
65.92367067,64.31796741,61.43481990
65.88679245,64.26179245,61.36835334
65.83008148,64.15233705,61.28484134
65.89944254,64.22877358,61.36320755
66.02722985,64.39922813,61.49099485
66.20797599,64.62135506,61.65437393
66.32943825,64.83093911,61.75246569
66.40608919,64.99335334,61.88486278
66.53430532,65.20647513,61.98885077
66.57579331,65.29899228,61.99774871
66.67484991,65.52154803,62.14633362
66.71365780,65.60366638,62.14826329
66.82354202,65.84605489,62.29845626
66.93717839,66.03323328,62.41702401
66.97287736,66.28183962,62.52026158
67.13078902,66.48177530,62.62650086
67.03945111,66.44103774,62.58018868
66.27079760,65.27337050,61.87178388
65.46280017,63.73659949,60.98188250
65.12178388,62.97577187,60.56153516
64.98370497,62.62864494,60.39365352
64.80821184,62.18063894,60.14418954
64.60345197,61.70658233,59.90276587
64.52347770,61.43406947,59.78591338
64.72502144,61.65962693,60.00653945
65.02722985,62.09884220,60.22019726
65.08286878,62.19564751,60.34680532
65.03677101,62.17613636,60.26061321
65.12746569,62.27090480,60.36224271
65.29663379,62.52304889,60.53998714
65.41187822,62.78194683,60.65030017
65.60891938,63.10398799,60.89965695
65.73070326,63.32568611,61.02680103
65.83329760,63.57858062,61.10902659
65.92431389,63.74421098,61.21633791
66.07740137,64.02615780,61.37478559
66.23499142,64.26372213,61.54867067
66.31335763,64.48209691,61.59251715
66.44286021,64.72009005,61.77883791
66.61352916,64.96858919,61.96580189
66.75793310,65.27122642,62.11084906
66.83908662,65.48381218,62.20508148
66.97416381,65.77240566,62.40233705
67.07729417,66.03012436,62.45679674
67.12424957,66.22866638,62.56014151
67.24281732,66.49624786,62.66370069
67.33737136,66.68985849,62.84165952
67.47009005,66.98081046,62.97373499
67.58254717,67.20004288,63.08897942
67.36342196,67.03795026,62.94060892
66.30981990,65.33983705,61.93610635
65.53569897,63.74689108,61.01597341
65.27669383,63.08458405,60.66884648
65.16423671,62.77358491,60.49957118
65.01447256,62.39333190,60.34101630
64.79256003,61.94243139,60.03827187
64.68825043,61.68867925,59.86470840
64.87575043,61.89762007,60.07000429
65.20765437,62.41455832,60.41498714
65.31453688,62.65351630,60.53923671
65.29481132,62.64665523,60.52465695
65.37778731,62.76843911,60.62114065
65.51457976,62.98584906,60.75343053
65.70508148,63.28912950,60.92334906
65.86846055,63.58008148,61.07793739
65.97105489,63.80274443,61.24592624
66.12253431,64.07021870,61.41777444
66.23123928,64.29320326,61.51425815
66.38250429,64.50771870,61.66659520
66.51447256,64.74517581,61.74024443
66.63346913,64.96344340,61.92635077
66.77272727,65.18567753,62.02337050
66.86320755,65.45926244,62.14493997
67.00503859,65.69050172,62.25975557
67.08458405,65.91991852,62.38925815
67.21430103,66.18750000,62.51189966
67.29749142,66.45358062,62.59594768
67.40222985,66.63572041,62.74549743
67.48574185,66.87703688,62.88153945
67.57707976,67.08136792,62.95701115
67.75107204,67.34777015,63.18889365
67.77712264,67.54663379,63.22244854
67.59937822,67.39526158,63.11653087
66.64794168,65.83383362,62.18867925
65.90951973,64.28130360,61.32525729
65.64804889,63.69157376,61.01275729
65.57815180,63.41069897,60.89783448
65.40083619,63.08994425,60.72116209
65.16852487,62.61792453,60.45904803
65.13882933,62.49324614,60.40276587
65.34112350,62.71633791,60.65008576
65.60205832,63.15480274,60.88250429
65.63496998,63.27990995,60.94650515
65.59712693,63.25493139,60.88893654
65.68975129,63.37821612,60.95647513
65.81593053,63.53934391,61.11417238
65.97963122,63.82032590,61.28602058
66.15630360,64.13700686,61.44789880
66.23284734,64.33812178,61.53945111
66.38261149,64.54277444,61.64590480
66.48927959,64.72362779,61.81024871
66.60698971,64.94961407,61.91616638
66.69489708,65.15973413,62.02229846
66.83608491,65.34123070,62.16327187
66.97244854,65.60259434,62.28698542
67.00214408,65.76265009,62.30038593
67.16798885,66.00182247,62.47609348
67.19757719,66.24367496,62.53977273
67.38947256,66.54706261,62.80006432
67.48542024,66.78623499,62.91638079
67.51683105,66.89869211,62.92956690
66.97394940,66.17806604,62.43814322
66.06936106,64.48638508,61.48788593
65.58758576,63.45036449,60.96601630
65.49817753,63.12424957,60.81335763
65.43289022,62.91316467,60.76372213
65.31228559,62.60774014,60.54127358
65.17045455,62.36084906,60.41680961
65.34348199,62.57568611,60.61663808
65.67399228,63.00889794,60.91991852
65.62403516,63.05242281,60.90962693
65.62296312,63.03677101,60.87703688
65.62960978,63.07279160,60.88239708
65.78344768,63.28194683,61.01222127
65.94886364,63.55135077,61.19135935
66.09927101,63.80231561,61.36642367
66.28612779,64.09187393,61.56464408
66.39686964,64.26865352,61.64922813
66.47212693,64.46419383,61.72319897
66.62156947,64.68374786,61.89794168
66.66530875,64.78902230,61.93782161
66.82150515,65.04213122,62.05413808
66.90308748,65.21419383,62.20690395
67.08565609,65.53527015,62.35623928
67.23831475,65.78805746,62.52712264
67.33458405,65.97845197,62.61224271
67.35827616,66.09198113,62.65437393
66.65169383,65.11910377,62.03741424
65.70057890,63.52390652,61.08587050
65.27787307,62.53687822,60.51865352
65.20411664,62.23970840,60.39794168
65.12521441,62.02165523,60.34605489
64.90930532,61.64558319,60.04352487
64.84809177,61.46280017,59.98788593
65.07322041,61.76747427,60.18599914
65.37510720,62.21258576,60.50653945
65.40566038,62.32825901,60.54052316
65.37960978,62.30542453,60.52497856
65.42270583,62.39418954,60.55864065
65.59337479,62.63025300,60.74624786
65.81828902,63.00332333,60.94414666
65.97394940,63.26125643,61.17270583
66.09005146,63.50793310,61.30596055
66.17710120,63.69318182,61.38979417
66.26318611,63.88604202,61.42484991
66.44714837,64.14483276,61.68342624
66.53023156,64.33833619,61.77572899
66.72084048,64.60205832,61.87371355
66.83436964,64.84165952,62.03870069
66.92924528,65.04502573,62.18932247
67.09712693,65.29073756,62.34605489
67.23992281,65.51479417,62.53044597
67.42431389,65.84712693,62.66380789
67.48810034,66.04899228,62.74882075
67.39611921,65.97051887,62.70936964
66.38722127,64.45776158,61.77337050
65.42828045,62.70593911,60.73960120
65.14161664,61.95057890,60.33780017
64.99110206,61.65662521,60.14440395
64.86052744,61.36074185,60.00353774
64.67131218,60.95647513,59.74442539
64.55885506,60.72244854,59.61996141
64.80906947,61.02883791,59.88797170
65.13604202,61.53934391,60.22695111
65.24453259,61.76211407,60.33565609
65.24185249,61.79995712,60.31861063
65.36888937,61.93385506,60.41284305
65.54341767,62.19564751,60.60473842
65.72909520,62.51318611,60.81250000
65.88861492,62.83908662,60.98767153
66.03891509,63.08672813,61.14504717
66.14783448,63.34616209,61.30821184
66.25160806,63.56057033,61.39783448
66.41198542,63.82729417,61.59165952
66.61009863,64.08737136,61.73252573
66.64622642,64.25107204,61.79373928
66.82783019,64.55017153,62.01179245
66.94972127,64.77798027,62.07707976
67.13164666,65.05060034,62.38379074
67.28655660,65.35538165,62.50032161
67.43910806,65.59626930,62.61685249
67.53805746,65.86052744,62.72802316
67.65415952,66.06346484,62.85506003
67.79309605,66.35377358,62.99013722
67.88250429,66.50921955,63.08168954
68.03430532,66.80896226,63.24592624
68.19093053,67.10859777,63.43106775
68.34476844,67.38915094,63.56925386
68.30703259,67.48756432,63.59626930
67.33940823,66.15072899,62.74035163
66.12307033,63.99721269,61.52937393
65.53644940,62.77808748,60.76050600
65.48391938,62.40909091,60.68074614
65.44328902,62.19650515,60.54641938
65.16348628,61.67913808,60.24646226
65.01329331,61.35162950,60.03644940
65.08361921,61.39601201,60.11642367
65.48852916,61.98960120,60.55413808
65.69371784,62.33565609,60.73316895
65.64022298,62.29716981,60.64858491
65.70883362,62.37757290,60.75064322
65.79180961,62.50171527,60.85634648
65.99453259,62.86245712,61.06678816
66.20743997,63.19779160,61.23831475
66.38539880,63.47223413,61.44629074
66.49624786,63.71322899,61.60237993
66.61342196,63.96162093,61.69639794
66.72523585,64.22673671,61.82236278
66.83812178,64.41659520,61.97169811
66.96172813,64.65383791,62.02798027
67.14000858,64.90973413,62.25214408
67.23048885,65.16402230,62.37478559
67.41820326,65.43428388,62.56528731
67.54963551,65.67120497,62.66305746
67.63915094,65.87542882,62.81710978
67.82579331,66.19757719,62.93192539
67.94243139,66.43814322,63.10002144
68.09648370,66.71569468,63.27358491
68.18578473,66.87060463,63.34766295
67.55617496,66.15608919,62.77358491
66.42978130,64.26790309,61.76275729
65.75718268,62.92635077,60.96644511
65.70647513,62.62199828,60.75621784
65.70090051,62.50192967,60.76436535
65.56828902,62.21773156,60.57129074
65.47963122,61.98327616,60.39386792
65.65405232,62.14847770,60.64333190
65.99067324,62.72673671,60.95872642
66.01436535,62.82204117,60.98499142
65.99410377,62.77862350,60.99003002
66.04995712,62.86256432,60.98542024
66.18985849,63.06185678,61.11803173
66.41434391,63.38904374,61.36695969
66.54974271,63.69018010,61.50450257
66.74110206,63.99882075,61.75160806
66.87896655,64.27090480,61.82472127
66.95529588,64.44478988,61.95465266
67.04234563,64.65705403,62.05413808
67.11674528,64.81828902,62.14097341
67.25053602,65.05049314,62.30906947
67.39429674,65.27894511,62.44446827
67.54706261,65.57429245,62.58501286
67.70572470,65.87231990,62.73938679
67.84444683,66.06614494,62.88947256
67.84283877,66.18010292,62.89944254
67.05478130,65.06550172,62.15319468
66.01147084,63.25932676,61.13132504
65.61513722,62.29095197,60.58897942
65.53473413,62.01908233,60.44618353
65.47298456,61.86706690,60.41316467
65.30563894,61.54020154,60.20400943
65.19414666,61.31421527,60.04127358
65.46730274,61.66584477,60.34380360
65.81968268,62.20325901,60.63893654
65.90051458,62.37049743,60.73263293
65.87896655,62.34659091,60.71365780
65.94757719,62.44457547,60.79406089
66.15608919,62.76801029,60.96762436
66.33018868,63.08790738,61.17924528
66.50996998,63.40791166,61.34187393
66.62285592,63.64922813,61.48477702
66.79041595,63.91563036,61.70207976
66.92442110,64.14719125,61.82064751
67.01618782,64.35752573,61.89762007
67.15480274,64.59069468,62.05596055
67.23852916,64.83222556,62.17785163
67.41295026,65.09219554,62.31282161
67.57043310,65.37403516,62.52111921
67.68653516,65.59669811,62.63379074
67.81217839,65.89086621,62.79545455
67.93160377,66.10698971,62.93674957
68.08672813,66.32343482,63.01082762
68.21044168,66.57000429,63.16198542
68.32975986,66.82075472,63.25621784
68.47630789,67.10130789,63.43364065
68.47545026,67.15705403,63.40105060
67.60248714,65.93331904,62.68653516
66.40780446,63.89408233,61.38636364
65.91702401,62.80874786,60.79716981
65.87360635,62.53934391,60.71558748
65.78891509,62.28183962,60.55692539
65.59894940,61.90255146,60.38411235
65.39022298,61.49656947,60.11620926
65.49238851,61.61159949,60.13647084
65.87971698,62.18181818,60.61170669
66.04963551,62.49324614,60.76018439
66.09123070,62.52905232,60.79663379
66.12489280,62.58908662,60.83458405
66.30285163,62.83243997,60.96730274
66.47330617,63.22630789,61.09251715
66.64847770,63.55027873,61.34852058
66.84605489,63.87500000,61.55360206
66.93567753,64.06989708,61.64579760
67.07643654,64.32043310,61.82064751
67.26479417,64.60570326,62.02637221
67.38561321,64.85966981,62.08758576
67.52251286,65.16659520,62.27530017
67.58533448,65.39729846,62.36963979
67.77905232,65.69714837,62.56014151
67.86545883,65.90641081,62.62103345
68.08158233,66.24817753,62.85045026
68.21140652,66.47362779,62.94168096
68.30403087,66.68417667,63.04631218
68.43074614,66.97620069,63.17538593
68.51683105,67.23552744,63.33565609
68.67034734,67.52969554,63.54105918
68.49656947,67.39386792,63.41123499
67.51382933,65.93128216,62.42313465
66.71612350,64.53966552,61.65115780
66.39890652,63.90040738,61.27948113
66.39719125,63.76940395,61.25611063
66.28912950,63.49860635,61.08008148
66.09980703,63.10409520,60.85688250
66.04448971,62.89869211,60.78012436
66.17956690,63.18514151,60.95808319
66.47394940,63.66820326,61.28033877
66.51822470,63.76672384,61.32182676
66.49796312,63.76018439,61.28848628
66.57783019,63.89644082,61.35634648
66.72641509,64.11578045,61.48863636
66.83168954,64.40566038,61.61149228
66.95100772,64.65019297,61.79148799
67.14161664,64.91777444,61.96751715
67.24313894,65.19382504,62.10484563
67.34734134,65.39579760,62.16638079
67.47480703,65.60731132,62.30392367
67.53419811,65.79020154,62.35966981
67.67560034,66.01715266,62.49635506
67.78666381,66.21526587,62.64558319
67.84734134,66.42924528,62.69382504
67.99592624,66.72427101,62.91037736
68.11138508,66.96515866,63.01125643
68.18353345,67.17967410,63.13529160
68.16734563,67.21430103,63.13132504
67.44189537,66.17903087,62.40373070
66.63668525,64.78055317,61.60409520
66.30253002,64.04995712,61.27229846
66.25814751,63.84348199,61.13228988
66.18192539,63.68642796,61.09873499
66.02058319,63.40523156,60.89708405
66.01050600,63.33940823,60.91380789
66.25643225,63.64515437,61.16316467
66.46998285,63.96119211,61.33919383
66.36342196,63.89579760,61.20926244
66.34123070,63.86460120,61.21558748
66.40083619,63.96129931,61.30456690
66.55424528,64.17838765,61.44961407
66.69018010,64.43996569,61.63443396
66.77272727,64.64172384,61.69103774
66.93621355,64.88561321,61.82322041
67.02208405,65.06689537,61.94725557
67.11310034,65.22930961,62.03312607
67.18235420,65.38261149,62.15469554
67.20733276,65.51436535,62.17131218
67.39483276,65.79470412,62.38132504
67.51768868,65.98424099,62.36438679
67.65362350,66.25653945,62.61310034
67.71976844,66.45990566,62.71419383
67.56003431,66.31196398,62.55660377
66.67817324,64.99292453,61.77594340
65.93535592,63.63925815,60.97009005
65.71987564,63.08780017,60.66798885
65.60870497,62.79609777,60.50964837
65.51050600,62.53537736,60.40823328
65.37317753,62.25804031,60.21022727
65.43106775,62.26018439,60.32086192
65.79116638,62.71397942,60.67881647
65.82289880,62.84412521,60.74206690
65.78012436,62.82793739,60.66648799
65.75718268,62.82858062,60.66713122
65.87028302,63.01715266,60.77958834
66.08083190,63.29738422,60.95304460
66.18921527,63.52390652,61.11009863
66.35184391,63.79609777,61.22212693
66.45797599,63.97598628,61.35248714
66.54545455,64.22770154,61.49313894
66.54180961,64.36663808,61.54974271
66.70057890,64.55885506,61.68256861
66.80124357,64.71440823,61.73091767
66.87864494,64.91680961,61.86685249
67.06989708,65.16916810,62.04524014
67.18750000,65.43685678,62.14826329
67.34240995,65.64794168,62.29309605
67.35152230,65.77819468,62.27219125
66.82096913,65.14493997,61.85548885
65.80295883,63.45433105,60.89472556
65.24378216,62.29566895,60.27358491
65.11792453,61.87521441,60.01586621
64.93503431,61.54009434,59.81196398
64.75782590,61.09294597,59.61245712
64.50000000,60.68932247,59.33876501
64.62928816,60.76136364,59.43353345
64.96837479,61.28548456,59.81464408
65.17120497,61.60495283,60.02883791
65.13486278,61.59841338,60.00686106
65.13186106,61.62757290,59.99549743
65.31528731,61.88261149,60.13432676
65.48509863,62.14354631,60.35795455
65.64236707,62.44575472,60.56646655
65.73499142,62.65801887,60.62092624
65.90930532,62.93632075,60.83083190
66.03559177,63.20947684,60.94210978
66.09348199,63.37392796,61.01157804
66.20947684,63.62135506,61.13829331
66.31850343,63.83672813,61.28655660
66.48306175,64.09112350,61.46783877
66.60141509,64.34562607,61.60977702
66.67581475,64.61063465,61.65480274
66.85195111,64.84916381,61.82386364
66.92206261,65.04148799,61.87768010
67.05981990,65.30403087,62.10613208
67.12960978,65.42956690,62.16177101
67.30606775,65.69564751,62.33115352
67.40909091,65.96719554,62.39493997
67.53741424,66.21494425,62.56035592
67.35280875,66.06828902,62.45422384
66.30488851,64.45990566,61.46269297
65.45894082,62.90233705,60.51876072
65.17635077,62.22180532,60.15683962
65.17656518,62.00825472,60.10602487
64.95551029,61.62596484,59.90040738
64.74624786,61.23188250,59.59423242
64.68696398,61.03816467,59.48263293
64.87982419,61.27347770,59.75053602
65.26415094,61.86535163,60.12757290
65.34766295,62.06635935,60.20551029
65.36738851,62.11331475,60.23295455
65.46826758,62.28516295,60.32461407
65.59133791,62.54867067,60.48456261
65.79052316,62.87864494,60.70969125
65.94039451,63.18996569,60.88486278
66.06914666,63.48852916,61.06464408
66.18653516,63.71676672,61.13336192
66.29588336,63.93825043,61.21719554
66.39976415,64.21794597,61.37467839
66.53409091,64.44596913,61.50128645
66.67924528,64.71440823,61.67495712
66.77047599,64.94714837,61.77990995
66.91262864,65.21816038,61.96987564
67.07054031,65.51265009,62.10184391
67.19296741,65.73970840,62.20090051
67.32000429,65.99153087,62.35388079
67.41745283,66.23756432,62.47212693
67.52401372,66.48048885,62.62971698
67.58876501,66.73048885,62.71848199
67.74549743,66.95583190,62.86599485
67.80767581,67.15437393,63.00321612
67.83672813,67.35795455,63.09401801
67.96505146,67.62242710,63.20368782
68.08833619,67.86599485,63.33297599
68.15791166,68.14461835,63.46687393
68.12146226,68.18128216,63.47030446
67.27487136,66.92988851,62.67431389
66.32000429,65.11974700,61.65619640
65.92742281,64.18578473,61.17120497
65.85098628,63.90673242,61.05553173
65.67613636,63.57364923,60.88518439
65.43524871,63.12885935,60.62478559
65.23638508,62.69350343,60.39376072
65.33051029,62.78934391,60.45358062
65.64343911,63.26565180,60.81196398
65.73477702,63.49013722,60.92452830
65.71183533,63.45411664,60.92131218
65.71773156,63.47780875,60.90147942
65.82900943,63.64526158,61.00761149
65.96472985,63.83844340,61.14483276
66.16938250,64.14322470,61.34176672
66.26265009,64.38400515,61.43417667
66.42420669,64.59358919,61.63668525
66.47073328,64.80799743,61.60774014
66.56507290,64.93642796,61.72652230
66.67120497,65.17227702,61.84937822
66.77798027,65.35924099,61.95529588
66.93010292,65.61899657,62.12564322
67.00975557,65.83994425,62.24817753
67.16659520,66.08297599,62.38078902
67.24217410,66.33694254,62.48938679
67.32579331,66.53033877,62.60388079
67.43385506,66.79448971,62.76232847
67.52197684,66.94950686,62.78033877
67.58243997,67.16198542,62.89826329
67.64183105,67.32429245,63.02626501
67.74571184,67.52444254,63.15330189
67.86974700,67.76961835,63.35023585
67.70743997,67.65469554,63.15405232
66.74624786,66.16069897,62.20186535
65.88882933,64.41177101,61.28355489
65.58565609,63.68621355,60.91112779
65.54406089,63.43364065,60.87939537
65.41123499,63.14236707,60.77401372
65.18932247,62.73263293,60.47855918
65.15651801,62.58297599,60.43460549
65.46826758,62.94468268,60.72212693
65.60195111,63.20057890,60.83758576
65.56496569,63.17452830,60.79416810
65.52658662,63.13786449,60.79073756
65.58994425,63.20315180,60.84616209
65.77058319,63.46655232,60.99914237
65.93739280,63.68760720,61.16873928
66.07954545,63.97427101,61.30874786
66.22813036,64.22855918,61.43567753
66.33136792,64.40212264,61.56721698
66.46322899,64.60087907,61.72995283
66.53216123,64.76650943,61.80874786
66.66380789,64.93503431,61.83469125
66.75439537,65.13089623,61.96923242
66.90201544,65.44103774,62.17517153
67.04277444,65.64204545,62.28141081
67.14193825,65.87114065,62.43760720
67.25761149,66.12382075,62.49646226
67.35795455,66.34358919,62.65641081
67.47094768,66.59766295,62.80070755
67.54577616,66.76554460,62.86009863
67.39204545,66.63111063,62.72695111
66.42763722,65.10516724,61.87918096
65.49485420,63.37114065,60.86299314
65.14697684,62.57793739,60.44114494
65.11738851,62.30478130,60.30435249
64.95701115,62.00289451,60.20293739
64.75085763,61.60634648,59.84155232
64.68374786,61.34498285,59.77186964
64.91209262,61.62028302,60.05038593
65.21258576,62.09916381,60.31914666
65.23885077,62.17066895,60.35270154
65.22169811,62.17945969,60.35420240
65.32086192,62.29127358,60.45636792
65.49635506,62.57525729,60.59841338
65.67442110,62.84744854,60.78334048
65.86159949,63.19650515,60.97716552
65.95679674,63.38689966,61.10109348
66.05478130,63.60002144,61.17463551
66.14729846,63.84626930,61.25943396
66.36009863,64.10388079,61.50739708
66.50986278,64.32868782,61.63936535
66.62553602,64.53505575,61.77433533
66.72963122,64.77851630,61.86535163
66.87156947,64.98906518,62.01415094
67.01575901,65.27240566,62.16734563
67.19243139,65.50589623,62.31421527
67.33340480,65.77508576,62.47062607
67.45497427,65.99914237,62.66230703
67.51018439,66.23745712,62.70529588
67.68031732,66.46912521,62.86899657
67.71880360,66.61738851,62.93557033
67.85709691,66.90984134,63.05177959
67.95808319,67.11910377,63.19028731
68.11009863,67.39526158,63.37296312
68.11277873,67.49871355,63.41059177
67.27444254,66.28237564,62.57118353
66.05831904,64.12521441,61.35548885
65.42249142,62.75396655,60.66434391
65.35966981,62.39547599,60.47159091
65.26597341,62.10195111,60.31207118
65.05949828,61.67334906,60.10623928
64.87446398,61.23531304,59.84058748
64.90544597,61.20518868,59.81646655
65.29620497,61.69007290,60.21194254
65.48220412,62.07933105,60.46247856
65.48123928,62.13518439,60.48852916
65.51007719,62.14708405,60.43846484
65.66520154,62.37639365,60.60581046
65.88250429,62.69897084,60.76693825
65.94950686,62.96837479,60.90469554
66.18063894,63.29534734,61.14376072
66.27015437,63.49120926,61.26650943
66.43256861,63.73981561,61.41798885
66.54502573,63.97169811,61.55767581
66.65458834,64.19489708,61.63186106
66.83061750,64.43653516,61.81839623
66.87821612,64.62392796,61.90737564
67.07997427,64.92817324,62.07075472
67.22330617,65.17056175,62.21172813
67.34787736,65.43557033,62.36695969
67.50568182,65.67313465,62.48981561
67.59240995,65.89365352,62.61620926
67.72823756,66.09787736,62.72845197
67.81496569,66.29245283,62.84133791
67.94972127,66.55885506,62.98638508
68.06893225,66.77712264,63.05735420
68.17967410,67.04867067,63.20840480
68.27304889,67.27240566,63.38389794
67.99785592,66.94189537,63.09626930
66.80403087,65.07461407,61.98027444
65.82825901,63.14579760,60.91745283
65.55713979,62.39869211,60.56721698
65.50300172,62.20647513,60.44275300
65.34080189,61.84959262,60.25718268
65.15405232,61.42313465,59.99860635
65.03108919,61.16487993,59.85570326
65.30906947,61.48895798,60.12403516
65.63947256,62.05521012,60.44650515
65.72641509,62.21676672,60.55295883
65.70647513,62.23306175,60.55060034
65.73745712,62.36996141,60.55628216
65.94779160,62.62274871,60.76983276
66.11245712,62.93406947,60.95786878
66.29620497,63.23338336,61.16691681
66.41552316,63.47813036,61.27058319
66.57171955,63.75632504,61.47373499
66.70840480,64.01457976,61.57997427
66.78880789,64.24807033,61.69789880
66.91230703,64.47684391,61.85591767
66.98842196,64.63807890,61.95583190
67.13647084,64.91820326,62.09551887
67.22319897,65.14108062,62.14043739
67.40608919,65.43803602,62.39065180
67.55971269,65.68621355,62.56828902
67.68835763,65.90190823,62.66734563
67.81893225,66.16412950,62.80713979
67.91187822,66.33619211,62.86020583
68.02755146,66.55049314,62.97287736
68.13732847,66.76125643,63.12532161
68.25268010,67.01790309,63.27240566
68.34080189,67.28891509,63.36781732
68.27798027,67.31571612,63.39461835
67.26522298,65.86749571,62.45733276
66.11106346,63.75171527,61.29674099
65.65469554,62.69843482,60.69093053
65.61470840,62.40158662,60.54738422
65.57858062,62.28162521,60.42849485
65.39611921,61.90705403,60.26340051
65.27047599,61.64633362,60.10045026
65.58308319,61.98381218,60.35388079
65.84841338,62.42345626,60.66445111
65.80456690,62.50246569,60.64676244
65.78880789,62.44639794,60.62392796
65.86331475,62.54341767,60.68042453
65.99903516,62.71837479,60.82150515
66.23563465,63.09326758,61.04759863
66.41102058,63.38336192,61.22362779
66.48231132,63.57922384,61.34487564
66.62928816,63.85420240,61.47984563
66.70722556,64.03612779,61.60945540
66.82729417,64.26061321,61.74303173
66.95411664,64.43610635,61.85527444
67.05435249,64.63947256,61.89590480
67.17184820,64.89890652,62.08908662
67.32225557,65.10012864,62.21633791
67.44993568,65.40276587,62.37424957
67.57793739,65.65705403,62.47652230
67.65137221,65.82418525,62.57011149
67.78730703,66.04352487,62.69253859
67.86545883,66.19007290,62.77755146
67.99399657,66.44039451,62.86771012
68.10934820,66.65137221,62.97255575
68.24517581,66.85109348,63.17206261
68.38539880,67.09873499,63.31871784
68.41123499,67.26908233,63.33469125
68.47888079,67.43406947,63.43042453
67.62810892,66.32858062,62.66563036
66.31400086,64.09551887,61.39526158
65.66831046,62.66680961,60.64065180
65.48927959,62.18117496,60.37071184
65.48659949,61.97201973,60.30285163
65.25439537,61.50653945,60.02926672
65.03537736,61.12457118,59.81839623
65.08855060,61.09369640,59.82590051
65.47866638,61.60366638,60.18471269
65.71966123,61.93621355,60.42399228
65.65876930,61.93535592,60.33522727
65.71108491,61.98638508,60.41713122
65.79459691,62.16380789,60.48091767
65.99935678,62.45990566,60.69661235
66.24882075,62.86631647,60.95057890
66.33329760,63.12446398,61.05692539
66.51586621,63.36878216,61.17838765
66.55617496,63.54095197,61.29974271
66.71012007,63.81603774,61.47577187
66.84476844,64.00664666,61.58233276
66.99195969,64.27154803,61.74088765
67.07761578,64.50235849,61.91831046
67.19296741,64.75793310,61.94746998
67.37146226,65.02497856,62.18642796
67.48756432,65.26436535,62.30017153
67.61449400,65.55081475,62.42195540
67.68428388,65.72802316,62.49238851
67.80735420,65.92099057,62.65662521
67.90523156,66.16873928,62.76436535
68.05017153,66.44189537,62.90287307
68.22641509,66.69725557,63.09626930
68.19328902,66.78505575,63.01468696
67.29298885,65.56121355,62.26404374
66.01372213,63.42302744,61.04952830
65.48659949,62.11695969,60.34809177
65.31110635,61.71119211,60.08254717
65.22802316,61.40126501,59.94050172
64.99324614,61.00696827,59.72523585
64.78259005,60.59605489,59.44596913
64.80574614,60.59584048,59.51565180
65.16831046,61.08426244,59.85077187
65.45090051,61.52680103,60.17517153
65.41605918,61.56400086,60.13496998
65.42945969,61.62564322,60.13293310
65.61824614,61.86074185,60.30027873
65.77454974,62.10602487,60.44779160
65.97673671,62.48445540,60.65898370
66.10720412,62.75536021,60.79738422
66.25471698,63.04202401,60.96355060
66.32011149,63.22041166,61.08683533
66.45551029,63.51361492,61.20593911
66.56861063,63.72062607,61.35634648
66.69875643,63.92324185,61.45090051
66.82697256,64.22984563,61.66423671
66.95561750,64.45583190,61.74056604
67.07836621,64.75075043,61.91305746
67.21044168,65.00310892,62.07472127
67.32922384,65.25182247,62.17077616
67.48284734,65.51415094,62.36385077
67.55274443,65.66423671,62.47427101
67.70851201,65.94993568,62.58243997
67.78870069,66.14097341,62.64418954
67.91455832,66.35366638,62.79213122
68.08844340,66.64719125,62.97094768
68.15008576,66.86728130,63.02508576
68.08361921,66.87585763,63.02036878
66.91927530,65.25804031,61.97587907
65.81518010,63.21269297,60.86020583
65.38561321,62.17913808,60.20422384
65.32161235,61.87135506,60.11792453
65.16723842,61.55338765,59.92174099
64.90544597,61.07825901,59.55896226
64.74796312,60.74045883,59.41927530
64.78173242,60.78666381,59.50621784
65.12446398,61.35988422,59.80135077
65.23895798,61.57772298,60.00160806
65.23563465,61.57954545,59.93975129
65.27026158,61.61867496,59.96751715
65.37414237,61.78666381,60.09283877
65.54180961,62.09326758,60.24249571
65.67259863,62.34498285,60.41981132
65.83222556,62.61803173,60.64376072
65.95454545,62.88936535,60.70797599
66.04867067,63.12714408,60.89236707
66.16627358,63.34937822,60.96708834
66.20283019,63.47341338,61.07740137
66.34626930,63.72469983,61.18567753
66.41541595,63.87853774,61.27712264
66.55660377,64.18889365,61.48820755
66.68449828,64.46644511,61.63968696
66.78698542,64.67292024,61.70529588
66.94554031,64.91144940,61.75686106
67.04727702,65.13003859,61.95851201
67.11417238,65.28291166,62.00439537
67.20540309,65.48006003,62.10506003
67.35784734,65.71247856,62.25600343
67.47169811,65.92945969,62.40244425
67.55070755,66.16541595,62.50332333
67.56217839,66.29759863,62.55767581
66.72952401,65.21858919,61.85345197
65.55456690,63.24731990,60.66756003
64.97512864,61.89000858,59.91509434
64.89183105,61.50761149,59.77111921
64.83308319,61.31850343,59.64826329
64.68331904,61.01157804,59.46612350
64.50503859,60.64804889,59.24581904
64.61117067,60.78998714,59.37660806
64.94093053,61.25696827,59.76254288
64.94757719,61.35924099,59.75353774
64.91177101,61.31099914,59.72051887
64.89762007,61.33801458,59.69907804
65.02433533,61.49581904,59.82858062
65.21966123,61.82150515,60.03098199
65.34616209,62.09294597,60.14504717
65.48777873,62.32032590,60.30917667
65.53730703,62.53194683,60.40244425
65.68760720,62.76565180,60.55102916
65.72791595,62.93289022,60.63293310
65.84723413,63.13454117,60.78891509
65.94618353,63.33168954,60.90994854
66.02090480,63.52519297,60.96001286
66.14976415,63.79727702,61.14483276
66.22888079,63.97330617,61.24388937
66.37446398,64.26254288,61.37274871
66.50428816,64.46848199,61.50450257
66.62821612,64.71376501,61.64815609
66.67249142,64.89461835,61.72630789
66.06174957,64.10870497,61.18975129
64.93256861,62.22137650,60.05328045
64.27980274,60.79095197,59.27186964
64.11588765,60.30563894,59.04599057
64.03023156,60.09391081,58.87114065
63.83930103,59.77176244,58.70186535
63.63261149,59.39976415,58.42442110
63.69832762,59.42817324,58.53216123
64.05756861,59.93707118,58.88754288
64.16702401,60.19682676,59.01843911
64.17463551,60.23059605,59.01618782
64.16412950,60.24946398,59.05349485
64.33158233,60.45465266,59.20272298
64.50996998,60.75096484,59.33372642
64.67088336,61.09819897,59.52658662
64.85827616,61.39644082,59.76779588
64.91756003,61.57429245,59.85816895
65.05842624,61.86610206,60.02304889
65.08490566,62.03859348,60.05746141
65.23048885,62.28623499,60.25171527
65.32622213,62.48188250,60.34444683
65.43567753,62.74271012,60.49785592
65.57943825,63.02283448,60.59080189
65.71194254,63.24238851,60.74238851
65.89000858,63.54845626,61.08104631
65.92592196,63.71730274,61.07729417
66.10966981,64.01125643,61.21044168
66.17560034,64.21805317,61.34198113
66.30842624,64.43192539,61.54727702
66.00804031,64.12489280,61.20400943
64.76307890,62.30510292,60.05145798
63.85881218,60.48745712,58.94671955
63.46397942,59.70475986,58.54824185
63.38647084,59.44200257,58.42763722
63.18471269,59.09401801,58.23659949
62.94286021,58.69286021,57.94050172
62.82536449,58.44607633,57.79213122
63.03912950,58.69393225,58.04384648
63.44875643,59.31067753,58.42452830
63.48413379,59.51307890,58.50021441
63.49989280,59.54105918,58.46987564
63.55606775,59.66262864,58.56400086
63.75964837,59.97770154,58.80553173
63.94135935,60.31335763,59.01340051
64.06978988,60.59916381,59.16541595
64.30596055,60.96269297,59.39000858
64.36685249,61.14000858,59.54116638
64.46762436,61.37199828,59.60184391
64.59048027,61.61878216,59.79030875
64.67742281,61.83479846,59.86288593
64.79920669,62.11953259,60.08072470
64.90469554,62.38732847,60.21044168
65.07322041,62.59509005,60.34401801
65.19929245,62.89118782,60.46515866
65.32386364,63.15984134,60.63647084
65.43782161,63.42002573,60.79266724
65.54716981,63.59948542,60.92088336
65.69961407,63.86599485,61.05531732
65.75932676,64.07407804,61.11138508
65.80981990,64.26929674,61.22405660
66.00428816,64.53130360,61.45690395
66.14665523,64.82311321,61.55831904
66.22716552,65.01918954,61.67120497
65.49474700,64.19200257,61.04749142
64.16284305,62.03312607,59.76189966
63.37156947,60.39858491,58.83576329
63.16262864,59.79148799,58.42656518
63.06550172,59.52069039,58.34701973
62.85098628,59.06325043,58.08554889
62.60698971,58.64472556,57.83104631
62.56571612,58.53419811,57.77690823
62.85098628,58.96612350,58.02572899
63.20486707,59.46665952,58.39290309
63.16948971,59.53655660,58.40469554
63.17988851,59.59626930,58.43932247
63.22930961,59.73702830,58.49496141
63.43835763,60.01918954,58.69543310
63.62081904,60.31957547,58.94028731
63.72502144,60.58479846,59.04942110
63.88400515,60.89000858,59.17795883
63.97201973,61.12703688,59.37424957
64.08919383,61.35634648,59.43632075
64.18567753,61.57825901,59.65115780
64.26147084,61.74624786,59.64890652
64.41262864,62.04298885,59.90962693
64.53055317,62.25332333,59.97309177
64.66230703,62.50128645,60.11556604
64.74699828,62.73091767,60.26372213
64.91359348,62.98048885,60.41380789
65.03162521,63.23466981,60.55092196
65.14301029,63.45540309,60.67581475
65.29063036,63.68942967,60.84380360
65.34894940,63.86202830,60.94543310
65.47309177,64.09937822,61.07150515
65.62189108,64.37703688,61.23960120
65.68085334,64.58715695,61.33715695
65.76168525,64.87253431,61.42635077
65.82783019,64.99807033,61.52294168
64.97630789,63.86953259,60.76018439
63.63689966,61.62682247,59.34466123
62.96129931,60.17828045,58.56657376
62.86084906,59.74635506,58.37178388
62.77497856,59.51704545,58.22652230
62.57579331,59.18535592,57.98102487
62.39558319,58.80789022,57.80638937
62.56861063,58.98713551,57.94018010
62.92452830,59.53301887,58.30596055
62.96998285,59.70668954,58.35741852
62.90866209,59.66166381,58.35227273
62.93331904,59.67195540,58.36921098
63.10130789,59.92377787,58.55606775
63.22448542,60.17324185,58.70990566
63.42581475,60.45090051,58.87650086
63.52712264,60.74924957,59.05585334
63.63807890,60.97319897,59.17024014
63.78441252,61.27347770,59.37189108
63.84433962,61.38121784,59.42066895
63.97566467,61.63840051,59.57815180
64.06142796,61.81035592,59.66970412
64.19661235,62.05167238,59.81925386
64.31775300,62.29738422,59.95904803
64.42302744,62.50879074,60.08018868
64.59691252,62.76993997,60.23734991
64.73584906,63.01286449,60.37092624
64.84787736,63.27540738,60.50032161
64.81603774,63.29995712,60.47105489
63.93160377,62.15801887,59.75107204
62.75214408,60.21783877,58.55853345
62.26704545,59.09573328,57.91434391
62.18760720,58.80038593,57.70411664
62.11127787,58.58126072,57.61320755
61.93428388,58.23338336,57.39633362
61.82397084,58.02101201,57.33833619
62.08104631,58.30853345,57.51479417
62.44028731,58.91177101,57.89440395
62.49024443,59.03141081,57.95958405
62.46044168,59.07021870,57.94478988
62.45926244,59.11749571,58.01286449
62.69060892,59.40201544,58.20047170
62.85141509,59.74785592,58.38829331
63.04759863,60.08040309,58.57868782
63.15437393,60.35291595,58.75064322
63.28773585,60.58190395,58.84519726
63.36888937,60.83329760,59.02755146
63.49463979,61.07632933,59.20154374
63.64193825,61.27765866,59.31282161
63.71237136,61.46987564,59.42699400
63.85784734,61.76114923,59.54288165
64.04341767,62.00439537,59.71816038
64.18846484,62.30767581,59.91016295
64.34991424,62.54223842,60.09198113
64.43299743,62.77176244,60.21365780
64.56871784,63.02690823,60.35816895
64.69082333,63.28044597,60.47469983
64.81625214,63.50428816,60.59819897
64.86406518,63.69082333,60.69318182
64.93610635,63.86342196,60.77658662
65.11234991,64.24142367,60.97512864
65.16219983,64.48724271,61.10688250
65.18964408,64.57965266,61.15576758
64.11009863,63.09015866,60.20207976
62.77530017,60.75107204,58.77122642
62.17592196,59.37896655,57.93406947
62.06282161,58.93867925,57.74592624
61.96344340,58.62146226,57.59165952
61.69296741,58.13357633,57.24249571
61.45090051,57.70090051,57.05767581
61.46816038,57.69800600,57.03376930
61.88700686,58.23734991,57.51543739
62.15716123,58.66487993,57.68889365
62.13872213,58.72041166,57.69232419
62.16241424,58.81914666,57.76876072
62.26114923,58.99313894,57.86835334
62.44618353,59.31196398,58.07868782
62.60538165,59.62703688,58.26232847
62.78355489,59.94650515,58.44800600
62.92688679,60.20711835,58.58983705
63.01436535,60.41466552,58.77165523
63.15662521,60.67013293,58.88561321
63.22705832,60.85956261,58.96740995
63.41648799,61.18063894,59.21923242
63.54952830,61.41745283,59.30424528
63.66466552,61.65137221,59.45561750
63.82933105,61.92109777,59.61170669
63.96976844,62.13593482,59.80531732
64.10205832,62.42195540,59.92645798
64.24860635,62.66691681,60.10688250
64.38186106,62.95904803,60.22920240
64.46408662,63.20765437,60.36674528
64.57450686,63.48402659,60.44393225
64.71601630,63.72030446,60.67356346
64.83897942,63.93417667,60.80638937
64.93985849,64.19414666,60.98252573
64.97598628,64.38657804,61.01908233
65.18428388,64.76104202,61.22823756
65.33233276,65.04867067,61.40887650
65.32161235,65.16252144,61.42710120
64.21472985,63.77133362,60.47051887
62.86288593,61.26640223,58.97030446
62.24742710,59.90180103,58.23499142
62.09466123,59.38046741,57.91284305
62.00321612,59.08083190,57.77680103
61.79116638,58.61406518,57.45497427
61.57107633,58.12532161,57.23359777
61.54180961,58.02787307,57.12349914
61.92860206,58.54652659,57.51801029
62.15308748,58.99421098,57.79180961
62.11728130,59.03173242,57.78108919
62.14987136,59.06861063,57.82118353
62.29309605,59.22855918,57.95776158
62.39440395,59.49324614,58.07986707
62.56142796,59.77776587,58.30713979
62.73713551,60.05510292,58.46783877
62.91895369,60.37542882,58.65501715
63.01243568,60.58340480,58.77958834
63.13582762,60.81657376,58.90147942
63.23059605,61.00332333,59.02862350
63.31635935,61.21494425,59.13218268
63.48070326,61.47491424,59.30467410
63.62617925,61.72394940,59.43900086
63.70819039,61.95776158,59.61020583
63.89697684,62.26340051,59.70765437
64.02358491,62.47598628,59.89858491
64.12907376,62.71419383,60.00407376
64.21119211,62.87264151,60.11084906
64.38111063,63.15062178,60.29513293
64.45529588,63.42806604,60.40512436
64.57525729,63.65030017,60.59090909
64.57375643,63.74228130,60.59669811
63.66219983,62.52626501,59.71944683
62.40298027,60.45679674,58.48981561
61.85913379,59.18846484,57.74206690
61.82171955,58.82557890,57.57986707
61.77519297,58.63261149,57.45250858
61.61717410,58.32300600,57.24024443
61.50032161,58.03677101,57.11760292
61.72384220,58.30660377,57.39922813
62.10087907,58.89804889,57.74260292
62.06882504,58.93739280,57.72191252
62.02208405,58.92238422,57.69854202
62.06078473,58.97266295,57.77326329
62.26940395,59.24839194,57.97866638
62.43578473,59.55456690,58.16391509
62.62596484,59.83243997,58.37296312
62.80349485,60.11824614,58.50932676
62.87060463,60.34123070,58.62039022
62.96773156,60.58008148,58.75932676
63.03912950,60.70486707,58.80778302
63.16809605,60.94811321,58.96505146
63.29867067,61.10527444,59.14729846
63.38464837,61.40973413,59.27229846
63.54159520,61.63357633,59.39708405
63.69757719,61.87768010,59.59509005
63.84519726,62.13400515,59.70969125
63.98016724,62.36331475,59.84487564
63.73681389,62.15340909,59.66584477
62.52154803,60.51104202,58.50761149
61.60398799,58.76072041,57.52722985
61.32965266,57.98595626,57.05392367
61.22620069,57.70218696,56.95540309
61.09369640,57.39536878,56.84884220
60.87896655,57.02433533,56.58715695
60.86009863,56.89654803,56.54427530
61.17002573,57.29759863,56.85120069
61.47566467,57.82086192,57.13068182
61.52680103,57.93481990,57.20626072
61.49131647,57.92356346,57.16112779
61.62628645,58.10355918,57.25814751
61.83083190,58.41809605,57.47384220
61.96515866,58.74882075,57.62768010
62.18074614,59.06260720,57.84005146
62.26886792,59.31796741,57.98306175
62.42292024,59.55242281,58.19050172
62.54877787,59.77948113,58.29020154
62.60195111,60.01297170,58.44993568
62.77240566,60.26447256,58.59894940
62.91498714,60.49045883,58.71987564
63.04502573,60.77208405,58.90651801
63.17420669,60.99753431,59.03655660
63.35849057,61.28666381,59.23692110
63.48434820,61.55188679,59.35720412
63.57482847,61.78108919,59.52937393
63.66252144,62.05102916,59.57547170
63.81635935,62.25632504,59.80285163
63.92088336,62.48992281,59.87478559
64.00653945,62.65555317,60.03805746
64.18900086,62.92699400,60.21001286
64.31957547,63.24367496,60.34830617
64.42774443,63.49335334,60.51586621
64.06292882,63.19757719,60.23895798
62.67216981,61.08855060,58.85656089
61.58522727,59.03827187,57.63625643
61.28130360,58.13228988,57.12178388
61.21751715,57.82429245,57.01833190
60.97652230,57.39869211,56.75804031
60.69618353,56.87564322,56.47105489
60.58801458,56.59123070,56.32836621
60.74656947,56.79073756,56.46891081
61.15523156,57.40480274,56.84176672
61.27883791,57.67334906,57.02090480
61.24517581,57.66284305,56.96923242
61.28666381,57.82311321,57.02530017
61.50932676,58.12253431,57.24324614
61.71419383,58.42602916,57.42602916
61.87575043,58.76725986,57.65598199
62.00096484,58.99989280,57.81807461
62.16884648,59.29684820,57.97480703
62.24378216,59.49399657,58.06432247
62.37135506,59.78945111,58.26222127
62.54373928,60.00171527,58.43996569
62.67999571,60.29749142,58.57879503
62.81164237,60.56228559,58.69350343
62.89826329,60.80435249,58.89954974
63.08640652,61.10355918,59.04138079
63.25728988,61.36342196,59.23156089
63.39247427,61.63775729,59.38925815
63.55478130,61.86503002,59.56507290
63.67806604,62.13904374,59.73338336
63.79695540,62.41209262,59.83897942
63.94554031,62.63293310,59.99828473
64.04406089,62.92742281,60.15812607
64.16402230,63.15651801,60.21462264
64.27487136,63.41616638,60.42259863
64.36781732,63.63582762,60.54834906
64.51179245,63.95819039,60.71183533
64.61996141,64.20015009,60.82429245
64.59219554,64.26179245,60.86685249
63.36706690,62.68932247,59.70990566
62.03484134,60.27154803,58.32300600
61.44264580,58.93171098,57.55306604
61.34530446,58.46515866,57.30692539
61.30317324,58.22234134,57.14644082
61.05992710,57.78698542,56.86524443
60.90115780,57.44725557,56.73584906
61.04041595,57.54920669,56.81614494
61.39193825,58.10977702,57.16873928
61.53955832,58.40255146,57.32815180
61.48370497,58.37328473,57.29223842
61.49903516,58.43149657,57.31828902
61.63357633,58.59691252,57.48284734
61.83426244,58.89536878,57.69446827
62.01511578,59.22823756,57.85645369
62.17517153,59.54716981,58.05510292
62.29877787,59.84165952,58.25439537
62.37210549,60.07493568,58.29641938
62.54566895,60.30917667,58.50536021
62.66895369,60.49807033,58.71719554
62.74924957,60.71944683,58.78827187
62.91981132,60.98370497,58.94789880
63.06743139,61.24989280,59.08243997
63.26114923,61.55124357,59.28387650
63.41359348,61.80381647,59.43246141
63.53451973,62.05295883,59.59391081
63.62457118,62.26801029,59.65351630
63.77562178,62.54170240,59.80177959
63.90287307,62.81282161,60.01093482
63.99624786,63.06507290,60.15834048
64.07825901,63.33361921,60.27079760
63.73584906,62.98649228,59.97255575
62.41713122,61.01790309,58.73638508
61.44007290,59.11953259,57.55735420
61.15287307,58.36813894,57.14429674
61.15373070,58.17002573,57.09176672
61.02594340,57.88143225,56.91102058
60.92935249,57.58522727,56.79384648
60.90780446,57.50364494,56.72534305
61.29148799,58.01790309,57.12253431
61.53237564,58.42345626,57.39279588
61.51039880,58.49153087,57.34873499
61.49013722,58.48284734,57.30789022
61.56700257,58.60066467,57.37875214
61.84048027,58.96140652,57.59948542
62.00289451,59.30306604,57.90834048
62.19972127,59.63861492,58.11695969
62.29984991,59.85945540,58.19521870
62.32461407,60.08533448,58.30874786
62.58415523,60.38582762,58.54020154
62.67216981,60.53923671,58.60806175
62.76082762,60.75611063,58.75289451
62.88561321,60.96623070,58.92399228
63.07193396,61.27605060,59.09123070
63.24206690,61.54331046,59.27658662
63.37178388,61.79631218,59.42903087
63.47180532,62.06721698,59.54191681
63.58940823,62.30124357,59.69661235
63.76093482,62.60291595,59.87864494
63.89708405,62.92945969,60.05424528
63.93460549,63.05874786,60.07590051
63.13400515,62.01372213,59.37349914
61.69875643,59.74592624,57.95776158
61.01157804,58.29180961,56.99313894
60.86063465,57.76500858,56.79631218
60.78151801,57.51007719,56.61535163
60.57064751,57.08822899,56.41327187
60.34744854,56.65941252,56.19757719
60.36642367,56.65330189,56.19746998
60.76575901,57.14804889,56.55135077
61.05317324,57.64837050,56.82289880
61.00182247,57.70250858,56.79834906
61.06786021,57.78998714,56.86117067
61.23295455,57.99581904,57.01382933
61.36224271,58.31764580,57.21730274
61.61846055,58.67763722,57.42870926
61.74817753,58.95593911,57.56400086
61.87918096,59.26897513,57.78248285
62.03805746,59.53162521,57.92399228
62.11524443,59.76940395,58.04899228
62.27476415,59.97995283,58.21880360
62.43106775,60.26554460,58.36374357
62.58061750,60.52572899,58.54952830
62.69875643,60.77186964,58.69789880
62.83704974,61.03194683,58.85591767
63.00943396,61.29974271,59.03580617
63.16852487,61.59519726,59.22105489
63.30102916,61.86149228,59.37414237
63.41498714,62.10409520,59.47845197
63.50021441,62.34069468,59.64858491
63.58201115,62.59123070,59.75310892
63.74817753,62.87510720,59.89118782
63.90791166,63.15812607,60.14311750
63.92806604,63.33565609,60.18213979
63.08469125,62.31839623,59.42388508
61.67720840,59.95658233,58.00053602
60.92517153,58.43760720,57.05017153
60.79105918,57.85623928,56.69478988
60.73091767,57.57911664,56.66852487
60.47609348,57.14933533,56.33051029
60.26801029,56.68760720,56.12178388
60.25621784,56.59176672,56.10634648
60.57118353,57.01222127,56.33404803
60.86256432,57.54652659,56.65008576
60.84444683,57.62146226,56.72780875
60.85463122,57.67731561,56.67174099
61.03709262,57.85763293,56.85913379
61.16327187,58.17141938,57.00739708
61.36352916,58.50225129,57.23488422
61.49635506,58.76865352,57.39879931
61.62285592,59.09176672,57.52915952
61.79641938,59.37446398,57.72266295
61.91466552,59.57161235,57.83447684
62.03912950,59.77990995,58.02562178
62.17742281,60.01425815,58.16798885
62.31389365,60.30274443,58.29802744
62.45250858,60.52240566,58.39483276
62.59669811,60.76200686,58.60184391
62.75192967,61.03430532,58.76029160
62.86578045,61.27144082,58.85849057
63.04030875,61.56839623,59.10784734
63.12939537,61.77840909,59.17420669
63.26211407,62.01768868,59.33479846
63.34090909,62.27251286,59.45540309
63.45647513,62.51908233,59.59455403
63.60441681,62.82847341,59.80874786
63.72823756,63.01447256,59.92592196
63.35538165,62.62424957,59.61074185
61.93128216,60.58501286,58.28441252
60.96708834,58.73617067,57.15469554
60.71097770,57.92431389,56.71247856
60.64547599,57.62231990,56.51597341
60.54674099,57.33747856,56.41273585
60.33383362,56.95518868,56.18096055
60.33190395,56.84198113,56.14493997
60.66048456,57.29620497,56.47180532
60.90726844,57.65962693,56.68171098
60.86149228,57.70904803,56.67903087
60.85763293,57.71054889,56.67688679
60.92506432,57.81593053,56.73638508
61.13593482,58.11792453,57.02036878
61.23563465,58.42066895,57.08083190
61.43942967,58.72352058,57.27583619
61.58351201,58.94007290,57.46001286
61.72620069,59.22469983,57.67538593
61.81946827,59.40008576,57.73670669
61.92045455,59.60055746,57.85227273
62.02165523,59.82740137,57.99078045
62.11985420,60.00278731,58.09069468
62.27851630,60.27680103,58.31067753
62.37896655,60.49539022,58.46644511
62.54459691,60.74871355,58.60162950
62.69629074,60.98724271,58.73917238
62.88036021,61.30874786,58.90673242
63.01983276,61.54491852,59.01833190
63.05360206,61.71590909,59.11299314
62.43524871,61.04052316,58.59133791
61.11234991,59.01736707,57.31003431
60.43160377,57.51736707,56.43267581
60.23048885,56.96891081,56.11342196
60.17860206,56.77101201,56.00385935
60.07086192,56.49217410,55.91455832
59.91756003,56.16605918,55.74924957
60.02412093,56.26168525,55.80606775
60.39086621,56.82161235,56.18074614
60.55145798,57.13807890,56.36706690
60.48692110,57.12993139,56.25192967
60.48702830,57.16370069,56.33522727
60.66852487,57.36020583,56.41766724
60.88368353,57.71837479,56.64697684
61.08276158,58.08018868,56.89343911
61.21087050,58.32707976,57.03698542
61.32911664,58.60763293,57.15008576
61.44671955,58.83565609,57.34015866
61.57761578,59.09734134,57.50536021
61.71912521,59.33704974,57.69768439
61.80220840,59.49581904,57.76168525
61.92592196,59.77605060,57.96001286
62.05328045,60.02347770,58.06314322
62.28559177,60.33126072,58.29438250
62.40426672,60.57107633,58.46923242
62.55231561,60.82504288,58.61234991
62.64783448,61.04834906,58.71301458
62.77755146,61.27090480,58.85838336
62.93996569,61.61363636,59.04352487
63.03977273,61.83115352,59.20529588
62.99935678,61.90480274,59.18224700
61.94768439,60.53023156,58.22727273
60.62467839,58.28719983,56.83222556
60.06164237,57.02154803,56.14504717
59.99120926,56.61749571,55.87993139
59.84455403,56.33126072,55.71655232
59.58629931,55.90147942,55.46644511
59.43289022,55.58683533,55.28194683
59.48852916,55.61888937,55.34316038
59.89268868,56.23081046,55.77519297
60.14236707,56.65008576,56.00578902
60.10334477,56.70733276,55.97148370
60.12993139,56.75750429,56.01222127
60.26886792,56.98692110,56.17602916
60.51072041,57.34712693,56.38915094
60.66198542,57.70443825,56.65683962
60.81678816,57.93728559,56.77905232
60.92613636,58.24989280,56.93449828
61.07439966,58.46783877,57.03237564
61.21548027,58.75600343,57.22469983
61.31003431,58.95883362,57.39343911
61.50010720,59.26340051,57.55606775
61.64997856,59.52004717,57.72244854
61.79202401,59.76993997,57.90566038
61.96065609,60.05649657,58.10516724
62.09637650,60.31850343,58.19414666
62.26318611,60.61095626,58.37510720
62.38239708,60.89483276,58.46280017
62.53355489,61.14290309,58.64740566
62.61856775,61.34476844,58.87692967
62.64987136,61.56818182,58.93289022
62.87467839,61.88068182,59.11310034
62.96194254,62.15619640,59.28912950
63.05403087,62.31496569,59.42045455
62.06196398,61.15930532,58.51715266
60.68792882,58.81914666,57.06786021
59.96022727,57.28376930,56.11867496
59.77058319,56.75986278,55.91316467
59.70325901,56.48477702,55.72169811
59.45979846,56.05713979,55.43406947
59.27004717,55.68535592,55.25139365
59.26232847,55.60495283,55.24303173
59.67334906,56.16798885,55.64033019
59.91477273,56.59959262,55.90276587
59.87821612,56.69146655,55.85570326
59.90630360,56.74785592,55.90051458
60.02937393,56.91895369,55.98842196
60.26436535,57.26715266,56.26801029
60.38454117,57.61931818,56.45057890
60.62006861,57.93846484,56.65458834
60.73917238,58.21494425,56.81271441
60.87189108,58.48874357,56.95272298
61.03494854,58.73070326,57.17795883
61.14804889,58.93685678,57.26640223
61.31818182,59.24742710,57.47255575
61.48188250,59.49967839,57.61567324
61.61867496,59.76597341,57.79534734
61.76961835,60.03141081,58.00225129
61.88893654,60.27422813,58.11663808
62.09905660,60.60034305,58.33919383
62.17045455,60.83726415,58.43846484
62.35902659,61.14011578,58.59316038
62.36963979,61.33211835,58.67474271
62.53130360,61.56668096,58.89558319
62.65619640,61.83093911,59.04749142
62.81067753,62.11042024,59.22813036
62.95958405,62.44671955,59.38411235
62.77808748,62.36149228,59.29481132
61.42999571,60.53934391,58.03955832
60.18439108,58.27551458,56.62671527
59.74667667,57.16262864,55.97030446
59.68203259,56.86406518,55.88443396
59.61234991,56.57332762,55.66981132
59.39772727,56.20883362,55.47684391
59.26340051,55.95229417,55.32707976
59.53312607,56.26275729,55.61910377
59.88132504,56.81207118,55.91434391
59.92967410,56.93932247,55.95819039
59.85924099,56.87553602,55.88368353
59.86888937,56.99067324,55.93235420
60.09723413,57.23295455,56.15619640
60.28934391,57.51082762,56.36159949
60.45229417,57.87896655,56.52476415
60.59980703,58.14183105,56.70336621
60.77905232,58.44843482,56.89461835
60.93942967,58.70229417,57.07214837
61.01500858,58.87049743,57.17345626
61.13014580,59.10956261,57.30638937
61.24174528,59.29341767,57.42570755
61.42324185,59.56089194,57.63078902
61.52948113,59.81228559,57.77069039
61.69714837,60.07450686,57.97416381
61.82118353,60.34905660,58.10291595
61.96355060,60.58983705,58.21462264
62.10988422,60.85366638,58.43814322
62.18535592,61.10452401,58.55177959
62.33940823,61.38057461,58.65887650
62.24056604,61.37821612,58.63078902
61.15094340,59.96376501,57.71140652
59.93814322,57.84101630,56.30692539
59.38357633,56.63143225,55.57675815
59.33576329,56.30917667,55.44446827
59.29341767,56.10495283,55.40298027
59.14118782,55.77605060,55.20122213
59.02058319,55.55681818,55.07332762
59.32300600,55.89097341,55.29770583
59.63882933,56.43342624,55.68085334
59.64815609,56.52980274,55.62349914
59.62210549,56.53634220,55.70743997
59.65919811,56.60302316,55.73252573
59.88239708,56.90276587,55.84852058
60.09541166,57.27079760,56.14000858
60.29716981,57.59176672,56.37457118
60.43514151,57.89075901,56.56142796
60.54888508,58.10656089,56.60034305
60.71826758,58.37264151,56.83619211
60.80424528,58.55510292,56.93031732
60.96612350,58.82011149,57.11663808
61.04395369,59.05060034,57.25407376
61.19564751,59.28205403,57.39954974
61.38604202,59.55971269,57.60409520
61.49442539,59.83833619,57.70218696
61.65062178,60.09680532,57.88604202
61.76983276,60.32129074,58.05906947
61.88529160,60.59026587,58.20325901
62.04824185,60.83340480,58.36685249
62.17431389,61.07590051,58.49656947
62.25310892,61.33715695,58.56164237
61.72362779,60.73584906,58.14644082
60.27894511,58.58211835,56.74785592
59.29063036,56.67828045,55.56828902
59.04223842,55.98970840,55.17367067
58.98756432,55.72448542,55.09005146
58.79052316,55.32375643,54.86470840
58.56978988,54.88818611,54.66541595
58.47094768,54.71837479,54.47073328
58.79899228,55.14633362,54.80435249
59.11052744,55.69607633,55.16691681
59.19982847,55.86299314,55.23606346
59.16391509,55.88454117,55.20336621
59.24410377,56.04363208,55.32300600
59.41756003,56.33544168,55.42592196
59.60506003,56.65051458,55.66766724
59.83243997,56.99088765,55.88411235
59.92774443,57.26436535,56.03623499
60.06217839,57.52830189,56.20068611
60.20936964,57.74003002,56.38346913
60.33329760,57.98316895,56.52497856
60.49003002,58.22502144,56.61267153
60.61438679,58.46558748,56.80242281
60.75385935,58.77615780,56.98306175
60.88743568,58.99313894,57.17002573
61.07686535,59.29770583,57.31957547
61.22952401,59.60774014,57.52626501
61.35731132,59.83994425,57.63797170
61.49206690,60.12156947,57.79223842
61.57997427,60.31003431,57.90201544
61.69532590,60.57868782,58.09648370
61.78248285,60.74003002,58.16841767
61.91316467,61.01929674,58.31132075
62.06432247,61.32890223,58.48734991
62.16434391,61.57686535,58.67635077
61.69275300,61.09669811,58.24356775
60.16112779,58.87317753,56.82021870
59.16295026,56.89665523,55.57654374
58.83629931,56.05027873,55.08158233
58.77165523,55.70390223,54.94103774
58.56442967,55.34659091,54.74774871
58.29674099,54.86385077,54.43460549
58.17184820,54.64890652,54.33908662
58.43825043,54.91873928,54.59198113
58.80027873,55.51104202,54.92334906
58.81550172,55.67828045,54.98724271
58.81024871,55.66144940,54.90994854
58.85420240,55.77101201,55.00621784
58.99978559,56.00921955,55.12907376
59.22545026,56.38818611,55.42356346
59.43342624,56.71344340,55.63153945
59.55928388,56.96044168,55.74238851
59.68696398,57.20368782,55.89622642
59.82054031,57.41723842,56.04138079
59.91723842,57.68289022,56.21891081
60.06957547,57.92013293,56.37810892
60.19639794,58.18782161,56.54952830
60.37156947,58.43953688,56.69232419
60.53559177,58.70797599,56.80767581
60.70379503,59.01683105,57.04556175
60.85463122,59.26715266,57.23048885
61.01265009,59.56668096,57.41295026
61.14751286,59.86213551,57.54030875
61.28259005,60.10162950,57.71976844
61.36578045,60.31110635,57.85055746
61.47888079,60.58694254,57.95593911
61.64719125,60.89033019,58.21172813
61.76854631,61.12682247,58.33458405
61.69629074,61.15812607,58.32429245
60.38625643,59.51618782,57.10388079
59.13186106,57.24892796,55.74249571
58.63582762,56.07793739,54.95829760
58.52701544,55.67174099,54.76650943
58.38003859,55.35409520,54.59616209
58.14301029,54.88679245,54.32868782
58.02079760,54.60913379,54.21076329
58.14172384,54.80789022,54.33533448
58.60334477,55.40823328,54.76200686
58.73617067,55.65748285,54.87146226
58.68910806,55.62478559,54.87864494
58.72770154,55.72748714,54.94425386
58.84230274,55.94135935,55.07214837
59.07386364,56.29363208,55.29834906
59.23949400,56.57611492,55.48692110
59.40094340,56.89343911,55.68589194
59.58640652,57.22105489,55.85420240
59.69639794,57.46312178,56.01715266
59.81710978,57.68117496,56.14343911
59.91359348,57.86771012,56.24313894
60.06978988,58.14740566,56.41927530
60.23349057,58.40566038,56.60205832
60.45690395,58.72813036,56.75793310
60.59841338,58.99292453,56.96548027
60.71376501,59.23177530,57.09905660
60.84584048,59.54245283,57.29373928
60.96322899,59.73338336,57.41691681
61.09873499,60.02197684,57.53334048
61.16798885,60.26404374,57.74346055
61.31464408,60.55628216,57.92720840
61.43610635,60.77229846,58.07418525
61.54320326,61.01018439,58.22266295
61.68653516,61.29674099,58.39408233
61.81207118,61.54213122,58.49003002
62.01790309,61.87124786,58.67656518
61.62071184,61.53387650,58.41123499
60.14086621,59.47169811,57.00364494
58.98252573,57.30692539,55.66756003
58.63657804,56.33726415,55.11363636
58.64601201,56.16016295,55.06325043
58.52658662,55.89000858,54.91273585
58.38003859,55.55435249,54.73316895
58.34101630,55.44071612,54.65705403
58.76425815,55.95593911,55.01340051
58.97394940,56.36588765,55.30413808
58.89268868,56.35623928,55.25332333
58.86224271,56.34337479,55.25310892
58.93128216,56.42206261,55.29234563
59.16991852,56.74689108,55.52926672
59.34187393,57.06142796,55.68063894
59.54942110,57.40083619,55.91305746
59.71376501,57.69168096,56.10098628
59.83747856,57.94425386,56.23606346
59.99292453,58.17088336,56.42324185
60.08930103,58.37360635,56.49946398
60.22920240,58.61063465,56.69361063
60.30831904,58.82868782,56.81989708
60.47073328,59.05992710,56.95079331
60.63882933,59.31635935,57.14311750
60.75482419,59.60345197,57.28870069
60.88518439,59.93664237,57.50289451
61.01436535,60.19832762,57.65330189
60.85881218,60.07879503,57.55113636
59.57139794,58.38014580,56.33340480
58.46247856,56.38486278,55.06903945
58.11009863,55.49989280,54.55092196
57.99549743,55.15373070,54.41380789
57.88486278,54.88036021,54.24249571
57.73327616,54.56303602,54.05531732
57.63968696,54.38239708,53.92913808
57.94564751,54.78398370,54.27905232
58.26232847,55.32686535,54.61117067
58.31228559,55.48681389,54.65062178
58.30488851,55.50385935,54.63228988
58.37339194,55.62296312,54.69050172
58.53559177,55.85656089,54.89601201
58.74989280,56.22673671,55.06528731
58.97920240,56.60956261,55.36406518
59.11449400,56.87414237,55.49463979
59.19886364,57.10045026,55.61052744
59.37617925,57.36245712,55.78591338
59.47105489,57.58233276,55.91873928
59.61728130,57.84626930,56.14215266
59.75278731,58.07354202,56.24035163
59.91584477,58.36460120,56.40490995
60.09680532,58.61438679,56.65555317
60.23681389,58.88196827,56.76683105
60.37114065,59.15673242,56.99142367
60.44446827,59.42045455,57.08512007
60.59487564,59.68728559,57.21087050
60.69607633,59.87918096,57.34165952
60.80317324,60.09262436,57.50471698
60.93267581,60.36642367,57.65458834
61.02530017,60.62478559,57.76243568
60.95819039,60.60055746,57.73520583
59.58447684,58.78880789,56.42667238
58.37414237,56.58190395,55.00771870
57.87167667,55.47244854,54.40898370
57.80499571,55.05328045,54.15984134
57.64268868,54.66069897,53.97073328
57.28527015,54.14204545,53.65169383
57.17592196,53.83329760,53.49088765
57.26372213,53.92238422,53.54802744
57.63968696,54.47201973,53.91584477
57.82793739,54.75568182,54.10795455
57.76543739,54.75278731,54.05960549
57.84273156,54.89976415,54.14976415
58.01543739,55.14493997,54.28580617
58.15094340,55.42881647,54.44318182
58.34380360,55.74603345,54.62532161
58.47609348,55.99324614,54.79084477
58.60506003,56.26457976,54.95904803
58.72448542,56.47491424,55.08211835
58.86245712,56.70979846,55.24281732
58.98906518,56.96033448,55.38893654
59.09198113,57.19832762,55.52980274
59.28698542,57.48166810,55.69650515
59.38957976,57.76479417,55.81410806
59.54599057,58.05199400,56.01833190
59.68792882,58.29684820,56.19071612
59.86803173,58.64118782,56.38196827
59.98081046,58.93557033,56.57707976
60.10398799,59.16209262,56.68374786
60.17753002,59.44704117,56.79738422
60.26415094,59.62650086,56.87285592
60.41241424,59.96065609,57.11588765
60.50107204,60.14451115,57.21719554
60.61117067,60.42527873,57.40984134
60.70969125,60.64665523,57.50664666
60.81003431,60.87885935,57.58512007
60.98970840,61.17860206,57.76865352
60.99013722,61.32032590,57.82054031
60.26297170,60.42099057,57.07493568
59.14129503,58.46440823,55.92495712
58.55145798,57.17409949,55.11942539
58.41155660,56.75632504,54.82515009
58.25300172,56.43053173,54.65951973
58.03559177,55.98006003,54.42238422
57.79663379,55.54427530,54.13518439
57.80724700,55.48649228,54.12864494
58.06400086,55.81057033,54.44907804
58.20851201,56.10345197,54.52583619
58.16144940,56.09777015,54.55681818
58.15544597,56.05553173,54.52915952
58.20819039,56.16402230,54.59476844
58.31089194,56.39000858,54.71376501
58.42774443,56.57632933,54.82182676
58.54545455,56.81496569,55.03473413
58.64376072,57.02047599,55.12725129
58.78462693,57.25032161,55.32579331
58.81560892,57.34712693,55.29652659
58.91627358,57.54770583,55.44221698
59.01575901,57.75589623,55.59251715
59.08962264,57.97469983,55.70197256
59.20508148,58.19350343,55.85838336
59.27583619,58.33329760,55.90941252
59.41702401,58.58404803,56.10956261
59.51050600,58.78966552,56.19725557
59.64365352,59.07868782,56.36492281
59.73327616,59.22469983,56.49013722
59.75182247,59.36438679,56.54041595
59.20722556,58.63990137,55.95765437
58.29288165,57.12392796,54.99528302
57.85452401,56.09787736,54.40062178
57.73477702,55.70218696,54.19468268
57.65866209,55.50750429,54.06989708
57.48960120,55.19693396,53.84316038
57.36642367,54.95433105,53.71076329
57.60709691,55.21301458,54.00289451
57.81968268,55.57890223,54.23091767
57.78805746,55.60902659,54.19950686
57.75117925,55.52776587,54.14847770
57.75568182,55.58479846,54.20293739
57.91723842,55.78430532,54.35977702
58.03098199,55.99217410,54.45958405
58.19768439,56.21719554,54.65458834
58.32536449,56.47137650,54.77605060
58.46151372,56.71430103,54.94736278
58.54566895,56.85055746,55.02530017
58.66262864,57.01275729,55.10366638
58.71462264,57.17688679,55.22255575
58.80638937,57.33319039,55.34069468
58.94736278,57.56442967,55.53484134
59.03773585,57.72834477,55.59369640
59.14236707,57.98434820,55.71312178
59.27894511,58.21076329,55.89429674
59.36631647,58.41563036,56.00053602
59.49099485,58.60977702,56.12950257
59.50675386,58.72073328,56.19114494
59.21955403,58.34562607,55.83576329
58.29920669,56.74946398,54.83158233
57.56464408,55.38475557,53.99410377
57.34048027,54.85120069,53.74935678
57.10763293,54.42688679,53.48799314
56.92399228,53.98466981,53.22609348
56.70154374,53.54202401,52.96783877
56.65716123,53.39451115,52.93224700
56.98059605,53.84466123,53.28827187
57.20851201,54.18707118,53.54684820
57.17163379,54.17656518,53.49581904
57.16284305,54.18256861,53.49045883
57.32783019,54.39879931,53.63915094
57.49356775,54.62199828,53.81753859
57.62821612,54.84133791,53.92667238
57.80027873,55.10409520,54.07729417
57.89258148,55.35656089,54.23370497
58.07343482,55.57665094,54.40598199
58.18278302,55.79063036,54.51876072
58.24892796,55.95197256,54.58190395
58.46623070,56.21001286,54.77476415
58.53955832,56.38711407,54.89483276
58.72480703,56.63282590,55.08694254
58.81603774,56.81668096,55.23091767
58.97126930,57.08104631,55.34155232
59.06839623,57.28730703,55.42495712
59.22866638,57.51232847,55.66027015
59.35634648,57.72555746,55.75192967
59.44168096,57.88186106,55.87028302
59.57847341,58.09819897,56.03108919
59.65083619,58.28119640,56.14954974
59.78076758,58.49110206,56.22866638
59.87114065,58.65523156,56.34969983
59.97062607,58.86170669,56.49271012
60.12843053,59.12349914,56.64944254
60.21119211,59.32461407,56.74056604
60.37982419,59.55027873,56.93042453
60.02433533,59.13625643,56.56207118
58.86106346,57.26265009,55.34048027
57.93621355,55.45658233,54.27733705
57.58544168,54.66670240,53.80306604
57.41648799,54.26897513,53.67313465
57.06539451,53.68932247,53.29888508
56.75064322,53.15737564,52.98413379
56.57879503,52.82815180,52.77069039
56.83115352,53.10388079,53.06550172
57.23520583,53.67860206,53.40373070
57.35248714,53.89365352,53.51179245
57.33544168,53.93492710,53.51575901
57.39590480,54.01382933,53.58394082
57.62607204,54.29481132,53.77337050
57.71676672,54.53752144,53.88228988
57.89075901,54.83565609,54.06207118
58.08040309,55.09369640,54.24206690
58.19157376,55.29020154,54.34123070
58.35398799,55.50857633,54.48906518
58.45433105,55.74013722,54.61556604
58.59144511,55.95722556,54.77090480
58.73777873,56.15265866,54.93674957
58.88293310,56.43160377,55.14279588
59.03902230,56.72105489,55.26822470
59.14976415,56.94714837,55.38840051
59.35377358,57.23606346,55.65051458
59.47748714,57.45926244,55.75085763
59.62135506,57.70475986,55.85377358
59.70036449,57.89654803,55.99388937
59.77615780,58.10999142,56.05896226
59.96172813,58.32729417,56.24431818
60.12114065,58.56239280,56.46805317
60.24731990,58.82107633,56.57600772
60.34573328,58.99067324,56.69929245
59.85463122,58.40973413,56.27851630
58.65544597,56.56753859,55.00085763
57.99635506,55.15973413,54.25664666
57.73038165,54.61009863,53.85216552
57.61438679,54.31914666,53.79084477
57.37564322,53.90737564,53.52722985
57.16144940,53.51007719,53.28451973
57.18664237,53.47159091,53.26340051
57.54470412,53.92742281,53.60452401
57.86792453,54.37564322,53.94082333
57.88046741,54.50032161,53.92099057
57.91209262,54.52358491,53.93503431
58.03837907,54.70969125,54.06325043
58.15490995,54.92849485,54.19071612
58.32740137,55.22577187,54.39065180
58.48048885,55.46505146,54.52658662
58.66798885,55.79641938,54.73016724
58.80038593,56.06775300,54.83576329
58.93674957,56.28151801,54.97984563
59.06303602,56.47855918,55.15544597
59.19135935,56.67613636,55.26254288
59.33254717,56.93417667,55.42109777
59.47598628,57.20283019,55.57868782
59.69789880,57.50536021,55.77015437
59.83919383,57.76050600,55.94725557
59.92881647,57.92517153,56.02937393
60.00611063,58.20465266,56.08329760
60.20443825,58.44328902,56.29256003
60.37060463,58.71151372,56.51747427
60.48895798,58.95336621,56.65726844
60.55746141,59.11856775,56.74892796
60.07032590,58.49764151,56.23799314
59.09080189,56.90641081,55.22909520
58.58104631,55.87478559,54.53409091
58.42688679,55.53237564,54.38057461
58.37114065,55.39000858,54.30124357
58.22319897,55.05167238,54.10913379
58.12596484,54.80413808,53.92141938
58.32686535,55.08136792,54.18192539
58.66219983,55.60966981,54.54641938
58.70047170,55.70990566,54.56132075
58.66123499,55.69918525,54.53237564
58.68707118,55.74067324,54.55735420
58.86535163,56.01479417,54.78366209
58.97587907,56.24067324,54.89912093
59.17763722,56.51940395,55.13711407
59.33394082,56.80370926,55.30242281
59.46290738,57.03130360,55.42903087
59.56614494,57.27412093,55.55006432
59.62918096,57.40319468,55.60388079
59.75568182,57.61674528,55.77819468
59.89826329,57.80370926,55.83565609
60.00450257,58.00857633,56.02315609
60.14954974,58.24796312,56.16863208
60.21290738,58.43825043,56.24463979
60.37339194,58.67013293,56.40319468
60.50536021,58.87671527,56.54652659
60.56925386,59.09969983,56.62006861
60.68492710,59.28569897,56.76039880
60.67838765,59.33361921,56.75900515
60.07257719,58.45143654,56.14676244
59.11470840,56.85184391,55.10441681
58.67313465,55.94243139,54.61610206
58.55713979,55.57064751,54.44200257
58.36063465,55.24935678,54.19489708
58.12274871,54.82407804,53.93985849
57.95475986,54.47662950,53.74163808
58.07032590,54.58619211,53.85956261
58.42506432,55.11138508,54.23316895
58.48520583,55.29738422,54.32547170
58.45668954,55.28087479,54.30424528
58.54652659,55.33940823,54.34927101
58.66348628,55.53912950,54.46773156
58.85302316,55.80135077,54.68557033
59.00653945,56.06142796,54.83972985
59.15630360,56.29566895,55.02851630
59.26586621,56.54952830,55.13186106
59.40180103,56.78923671,55.26093482
59.49335334,56.98477702,55.42710120
59.57611492,57.15351630,55.49828473
59.72898799,57.38250429,55.66316467
59.82793739,57.57900943,55.76297170
59.94854202,57.79245283,55.92903087
60.07139794,58.01114923,56.04373928
60.21708834,58.27369211,56.21901801
60.35570326,58.48649228,56.36771012
60.43825043,58.61578045,56.47234134
60.58447684,58.89065180,56.62650086
60.62017581,59.08522727,56.65555317
60.80531732,59.30531732,56.83233276
60.71355060,59.26029160,56.80231561
59.83597770,58.00578902,55.93074614
58.82225557,56.23177530,54.86234991
58.36620926,55.32611492,54.29888508
58.22384220,54.94768439,54.06796741
57.99774871,54.56271441,53.87382075
57.73134648,54.11835334,53.58833619
57.54534734,53.77883791,53.46365780
57.63850772,53.88164666,53.53344768
58.08522727,54.52733705,54.02562178
58.22019726,54.79331046,54.12371355
58.21044168,54.79341767,54.11567324
58.29170240,54.88218268,54.19007290
58.48649228,55.14343911,54.37907376
58.69725557,55.42324185,54.59112350
58.80703259,55.68867925,54.74185249
58.94307461,55.92420669,54.81828902
59.10666810,56.20336621,55.04877787
59.21955403,56.42517153,55.19489708
59.34048027,56.66766724,55.32568611
59.43417667,56.83790738,55.42259863
59.59401801,57.06357204,55.59637650
59.73306175,57.32439966,55.69897084
59.87231990,57.58394082,55.89954974
60.00032161,57.80971269,56.01854631
60.14719125,58.07150515,56.15190823
60.28580617,58.27958834,56.33126072
60.36599485,58.48584906,56.45390223
60.53366209,58.74206690,56.60098628
60.53409091,58.90694683,56.66295026
60.66252144,59.08855060,56.78773585
60.87660806,59.39247427,57.02197684
60.98638508,59.61610206,57.15941252
61.11813894,59.84305317,57.28259005
60.54556175,59.20551029,56.72952401
59.32246998,57.32890223,55.54738422
58.58972985,55.79834906,54.62081904
58.30006432,55.20336621,54.27755146
58.21322899,54.91670240,54.18942967
57.92195540,54.46183533,53.92753002
57.67881647,54.10291595,53.67967410
57.65566038,53.94854202,53.65158662
57.99120926,54.44682676,53.97148370
58.33522727,54.98209691,54.30671098
58.33394082,55.04513293,54.25911235
58.39804889,55.10623928,54.32729417
58.46826758,55.25407376,54.46633791
58.67270583,55.53762864,54.64719125
58.84648370,55.83061750,54.79138079
59.02755146,56.07064751,54.99153087
59.18921527,56.40555317,55.17613636
59.30617496,56.63679245,55.32204117
59.45851201,56.87039022,55.46901801
59.58833619,57.06174957,55.61513722
59.69157376,57.27497856,55.69007290
59.86095626,57.53934391,55.89140223
59.95508148,57.72502144,56.02969554
60.12317753,57.97480703,56.16863208
60.22823756,58.21280017,56.34873499
60.34659091,58.44393225,56.50996998
60.49946398,58.74967839,56.63196827
60.64558319,58.92152659,56.80510292
60.72984563,59.14515437,56.85441681
60.20904803,58.51093482,56.37650086
59.05842624,56.71108491,55.18750000
58.35741852,55.45647513,54.43846484
58.20840480,55.01908233,54.23006003
58.16498714,54.85838336,54.17399228
57.96397942,54.56282161,53.96826758
57.87714408,54.37607204,53.88250429
58.04963551,54.60731132,54.09701973
58.52765866,55.25578902,54.50300172
58.60066467,55.42249142,54.60945540
58.52744425,55.36406518,54.53259005
58.61106346,55.44918525,54.59905660
58.70207976,55.65019297,54.69200257
58.91605918,55.95422384,54.92356346
59.07461407,56.25021441,55.11985420
59.29534734,56.57407804,55.30949828
59.41466552,56.81603774,55.47255575
59.49110206,57.00653945,55.55478130
59.66348628,57.22737993,55.72502144
59.77240566,57.39483276,55.81228559
59.86931818,57.67463551,55.98274014
60.01168525,57.86931818,56.05542453
60.16809605,58.12006861,56.29845626
60.34412521,58.37328473,56.46698113
60.45229417,58.58158233,56.59830617
60.59026587,58.87585763,56.72984563
60.67227702,59.05199400,56.79234563
60.81260720,59.25964837,56.95561750
60.83115352,59.44264580,57.04470412
60.98381218,59.65812607,57.20936964
61.16402230,59.98263293,57.35055746
61.23081046,60.14161664,57.43621355
61.17667238,60.08790738,57.39022298
60.01200686,58.42645798,56.29995712
58.87542882,56.44682676,55.07740137
58.45636792,55.57793739,54.53805746
58.39354631,55.30006432,54.43256861
58.22019726,55.02401372,54.22920240
57.97148370,54.54095197,53.98670669
57.85141509,54.32054031,53.83940823
58.08115352,54.56507290,54.07793739
58.51372213,55.19661235,54.43910806
58.61427959,55.40437393,54.55403087
58.58147513,55.39386792,54.54030875
58.65930532,55.48413379,54.61449400
58.81828902,55.74238851,54.77733705
59.08115352,56.06078473,55.00117925
59.25793310,56.37564322,55.22298456
59.42174099,56.59648370,55.37028302
59.55563894,56.80649657,55.51704545
59.65458834,57.01136364,55.58147513
59.82986707,57.30521012,55.77497856
59.97137650,57.51618782,55.97073328
60.11310034,57.75117925,56.02819468
60.26114923,58.00128645,56.22148370
60.42495712,58.23885077,56.34862779
60.63421955,58.55102916,56.57354202
60.76725986,58.80328045,56.73402659
60.86717410,58.94843482,56.82493568
60.98756432,59.24549743,56.95475986
61.20475986,59.54759863,57.17409949
61.34894940,59.79020154,57.27626501
61.26157804,59.72620069,57.28216123
60.30596055,58.40201544,56.31796741
59.31614494,56.67785163,55.24924957
58.97309177,55.85731132,54.75568182
58.88411235,55.60280875,54.62167667
58.75868353,55.29877787,54.46601630
58.57289880,54.91316467,54.20111492
58.44028731,54.62039022,54.07515009
58.63389794,54.84530446,54.25739708
59.02776587,55.48252573,54.68342624
59.20315180,55.76082762,54.82300600
59.20079331,55.78334048,54.82707976
59.28516295,55.89686964,54.89987136
59.46054889,56.20411664,55.09262436
59.67216981,56.51586621,55.24742710
59.86352916,56.85709691,55.46901801
60.06239280,57.12178388,55.70754717
60.16831046,57.39429674,55.81603774
60.33436964,57.67828045,56.00268010
60.46012007,57.89815609,56.10977702
60.60388079,58.14526158,56.30713979
60.74388937,58.41048456,56.44714837
60.91402230,58.67774443,56.62607204
61.07375643,58.93825043,56.78151801
61.22051887,59.22394940,56.91348628
61.38700686,59.52615780,57.12971698
61.53955832,59.77605060,57.30370926
61.67849485,60.02798027,57.40984134
61.73992281,60.22963122,57.52058319
61.91852487,60.49849914,57.65437393
62.10634648,60.78580617,57.85077187
62.25332333,61.08951544,58.03441252
62.29416810,61.27744425,58.11663808
61.69125214,60.47341338,57.50600343
60.66820326,58.71730274,56.46751715
60.03451973,57.46054889,55.67302744
59.88100343,57.07761578,55.43696398
59.81153516,56.84691252,55.35849057
59.60077187,56.42024014,55.14729846
59.39601201,56.03880789,54.86492281
59.40137221,55.92817324,54.89065180
59.70068611,56.42667238,55.22491424
59.89000858,56.76457976,55.43181818
59.89000858,56.82182676,55.43996569
59.88518439,56.82965266,55.42184820
60.00568182,57.00889794,55.59723413
60.16605918,57.29984991,55.76597341
60.25171527,57.50943396,55.90394511
60.46472985,57.82858062,56.08286878
60.59015866,58.05199400,56.21966123
60.74367496,58.30906947,56.43599914
60.84669811,58.52058319,56.54309605
60.93996569,58.70711835,56.62049743
61.08051029,58.93557033,56.76275729
61.15426672,59.15190823,56.85152230
61.32729417,59.40555317,57.07000429
61.44993568,59.63068182,57.19736278
61.58662093,59.85141509,57.31432247
61.68610635,60.07933105,57.39343911
61.75075043,60.30328045,57.49581904
61.96440823,60.59326758,57.76543739
62.02272727,60.79502573,57.77186964
61.91262864,60.69157376,57.73724271
60.91509434,59.19596913,56.72834477
60.05145798,57.59090909,55.80038593
59.73992281,56.83855060,55.38614923
59.60012864,56.54674099,55.20604631
59.48241852,56.30424528,55.11578045
59.27819468,55.89633362,54.83522727
59.23606346,55.77337050,54.72898799
59.62156947,56.25107204,55.12735849
59.71226415,56.54030875,55.30789022
59.69811321,56.52487136,55.27272727
59.70025729,56.48349057,55.25042882
59.71601630,56.53870069,55.29277444
59.89429674,56.80660377,55.52122642
60.02337050,57.08147513,55.59691252
60.20765437,57.38325472,55.85023585
60.33844340,57.64676244,56.00289451
60.45701115,57.88239708,56.11653087
60.54266724,58.06067753,56.20861921
60.63743568,58.21933962,56.36449400
60.76511578,58.42206261,56.54406089
60.83597770,58.61449400,56.62156947
60.95733276,58.91552316,56.74378216
61.09476844,59.12907376,56.90801887
61.19500429,59.31078473,57.03998714
61.36599485,59.55274443,57.19082333
61.48295455,59.77219125,57.32257719
61.60838336,60.01683105,57.46280017
61.63025300,60.15941252,57.46923242
61.20647513,59.64129503,57.09262436
60.09090909,57.80317324,55.95240137
59.28548456,56.26254288,55.02519297
59.07129074,55.71301458,54.68728559
58.97791595,55.48263293,54.62778731
58.76211407,55.13668525,54.38175386
58.50053602,54.73402659,54.15298027
58.49228130,54.68567753,54.12714408
58.89762007,55.21515866,54.55606775
59.09755575,55.53859348,54.72405660
59.07054031,55.55424528,54.70561750
59.09969983,55.59798456,54.73413379
59.17592196,55.73081046,54.83201115
59.42913808,56.11267153,55.10452401
59.59659091,56.41155660,55.29920669
59.79309605,56.71869640,55.44125214
59.88722127,56.94489708,55.56024871
60.04502573,57.17431389,55.79009434
60.19918525,57.39815609,55.90222985
60.27851630,57.62757290,56.02165523
60.41112779,57.84787736,56.16798885
60.52637221,58.05981990,56.27444254
60.65319468,58.33930103,56.49346055
60.82557890,58.59573328,56.67892367
60.96537307,58.84337479,56.85023585
61.11395798,59.10966981,56.96001286
61.17442110,59.26897513,57.04406089
61.35430961,59.54684820,57.26511578
61.45979846,59.77176244,57.34637650
61.61256432,60.01865352,57.54888508
61.46837479,59.98445540,57.42442110
60.38186106,58.39536878,56.35334477
59.25289451,56.39440395,55.08908662
58.73038165,55.30027873,54.45765437
58.66284305,55.08694254,54.36117067
58.50160806,54.75889794,54.24088765
58.23102487,54.31014151,54.00568182
58.05478130,54.04920669,53.80671098
58.20990566,54.19339623,53.92324185
58.68889365,54.85291595,54.39944254
58.87821612,55.14043739,54.55338765
58.81796741,55.15844768,54.48820755
58.90866209,55.27508576,54.60184391
59.08662093,55.52401372,54.73048885
59.32364923,55.90083619,55.00846913
59.54749142,56.20615352,55.21430103
59.75385935,56.52958834,55.45218696
59.82150515,56.74710549,55.51640223
60.00536021,57.03087479,55.69982847
60.12993139,57.23885077,55.84326758
60.24346055,57.49774871,55.97673671
60.39601201,57.74485420,56.12478559
60.53655660,57.97930961,56.29641938
60.69929245,58.25032161,56.46451544
60.82579331,58.50032161,56.60945540
60.97855918,58.77165523,56.79974271
61.09026587,58.98970840,56.92259863
61.20165094,59.20915523,57.07729417
61.38068182,59.51490137,57.24989280
61.53859348,59.76286449,57.45004288
61.56775300,59.86706690,57.47491424
60.54063036,58.63990137,56.54213122
59.30949828,56.49967839,55.19007290
58.74753431,55.29599057,54.47652230
58.60634648,54.91016295,54.26543739
58.51404374,54.69993568,54.21022727
58.26908233,54.32225557,53.93567753
58.07472127,54.03033877,53.79020154
58.16509434,54.07246998,53.84755575
58.62982419,54.73638508,54.33415523
58.91638079,55.18460549,54.60891938
58.91252144,55.19318182,54.57332762
58.94832762,55.28880789,54.63421955
59.12382075,55.51018439,54.78891509
59.35666810,55.87081904,55.00546741
59.57472127,56.22201973,55.20143654
59.73852916,56.54127358,55.41219983
59.92602916,56.80403087,55.56689537
60.02508576,57.05210120,55.68996569
60.22244854,57.33051029,55.89654803
60.34444683,57.58501286,56.06400086
60.45358062,57.81078473,56.22823756
60.61620926,58.09005146,56.36878216
60.75964837,58.35677530,56.56410806
60.93203259,58.65094340,56.73927959
61.01157804,58.87156947,56.85205832
61.18406947,59.12853774,57.01382933
61.31528731,59.33972985,57.13282590
61.43106775,59.62210549,57.32750858
61.55939108,59.83876501,57.43953688
61.69371784,60.08415523,57.57021870
61.86277873,60.35913379,57.83554889
61.53559177,60.09026587,57.51457976
60.21933962,58.09948542,56.20497427
59.13111063,56.13647084,54.96151372
58.78591338,55.29684820,54.48617067
58.79845626,55.19146655,54.47620069
58.61202830,54.91627358,54.28784305
58.41412950,54.60002144,54.11052744
58.39097341,54.50696827,54.09680532
58.77948113,55.03055317,54.46558748
59.07793739,55.47780875,54.74388937
59.05778302,55.47845197,54.70079331
59.05606775,55.51082762,54.71344340
59.10087907,55.60409520,54.76468696
59.30499571,55.93642796,54.95015009
59.51629503,56.23413379,55.20090051
59.69671955,56.56614494,55.37274871
59.87124786,56.90405232,55.61503002
59.99120926,57.12156947,55.71204974
60.10538165,57.34723413,55.89376072
60.21269297,57.52272727,55.98670669
60.33372642,57.77326329,56.17549314
60.46848199,57.98820755,56.26608062
60.61953259,58.25503859,56.42206261
60.78548456,58.52454974,56.62575043
60.86631647,58.72051887,56.72094768
61.01768868,58.97673671,56.92592196
61.15608919,59.25385935,57.05981990
61.34165952,59.54234563,57.26147084
61.43610635,59.73777873,57.36385077
60.69982847,58.83790738,56.64708405
59.34337479,56.75782590,55.30413808
58.55853345,55.23220412,54.40373070
58.44446827,54.86192110,54.22555746
58.41595197,54.74914237,54.12199828
58.26082762,54.46794597,53.98724271
58.14204545,54.24324614,53.89783448
58.26468696,54.42120497,53.99388937
58.71816038,55.10409520,54.41048456
58.83404803,55.28880789,54.51586621
58.82000429,55.28805746,54.50739708
58.83211835,55.32204117,54.51715266
58.99699828,55.53537736,54.67817324
59.21515866,55.91906089,54.98102487
59.38625643,56.24303173,55.14268868
59.60452401,56.56078473,55.35945540
59.71172813,56.82965266,55.45958405
59.79845626,56.99228130,55.53494854
59.97341338,57.28023156,55.74249571
60.08222556,57.46623070,55.86181389
60.17399228,57.70293739,56.00289451
60.34444683,57.94457547,56.14654803
60.49453259,58.20894082,56.31228559
60.65415952,58.44232419,56.53773585
60.78151801,58.68739280,56.66938250
60.94854202,58.99335334,56.85656089
61.13797170,59.24774871,56.98123928
61.19982847,59.44682676,57.08383362
60.61760292,58.75996998,56.53612779
59.22877358,56.63250429,55.16059177
58.41455832,55.10280875,54.18964408
58.21494425,54.60838336,53.90726844
58.10495283,54.37575043,53.78548456
57.89933533,54.05478130,53.59937822
57.68246141,53.72169811,53.37392796
57.69403945,53.67753002,53.36771012
58.09594768,54.20743997,53.75868353
58.43396226,54.75171527,54.08040309
58.43942967,54.86074185,54.12896655
58.44789880,54.87307033,54.14729846
58.63207547,55.12628645,54.32096913
58.83083190,55.42517153,54.47941681
59.08662093,55.80403087,54.73134648
59.27990995,56.14933533,54.92506432
59.48284734,56.41766724,55.16144940
59.58844340,56.72866638,55.31936106
59.66981132,56.92109777,55.39815609
59.83018868,57.20776158,55.59433962
59.96054889,57.44704117,55.74957118
60.13036021,57.75450257,55.93546312
60.30253002,58.03644940,56.14129503
60.47898799,58.30488851,56.31046312
60.62650086,58.60441681,56.44253859
60.74571184,58.85313036,56.59412521
60.89922813,59.10398799,56.74335334
61.01586621,59.33469125,56.89343911
61.19682676,59.70411664,57.09712693
61.34541166,60.00407376,57.24442539
61.44168096,60.17174099,57.31432247
60.70636792,59.36460120,56.71215695
59.39065180,57.29202401,55.35463122
58.67688679,55.87285592,54.50085763
58.50503859,55.43835763,54.18278302
58.40630360,55.22705832,54.11470840
58.18224700,54.79716981,53.92602916
57.95229417,54.41798885,53.55542453
57.91659520,54.32332762,53.55831904
58.26618782,54.79298885,53.92120497
58.58887221,55.31421527,54.28376930
58.54620497,55.36846055,54.27883791
58.56989708,55.40458834,54.25600343
58.68138937,55.60034305,54.40222985
58.84080189,55.84637650,54.50889794
59.07740137,56.24656947,54.78687822
59.21794597,56.58822899,54.92892367
59.42141938,56.87424957,55.16670240
59.56357204,57.15598199,55.37424957
59.65780446,57.34348199,55.48477702
59.79095197,57.60870497,55.62521441
59.90265866,57.84905660,55.72212693
