R,G,B
75.75943396,66.72598628,64.19382504
75.82375643,66.89236707,64.48456261
75.86653087,67.07279160,64.58029588
75.91027015,67.09852058,64.58565609
75.61899657,66.59498285,64.05145798
75.03902230,65.71376501,63.45583190
74.76072041,65.15008576,63.18867925
74.67152659,64.87607204,63.29202401
74.65748285,64.77733705,63.25396655
74.62789451,64.67034734,63.16648799
74.57611492,64.58018868,63.11706690
74.62660806,64.65555317,63.16670240
74.74206690,64.79974271,63.31367925
74.78130360,64.87349914,63.30253002
74.77647942,64.88947256,63.30971269
74.75707547,64.87585763,63.27637221
74.84937822,64.98788593,63.32450686
74.99056604,65.15051458,63.45368782
75.07064751,65.31593053,63.61695969
75.11202830,65.43921527,63.65405232
75.20936964,65.67420669,63.82214837
75.29481132,65.79009434,63.81689537
75.39118782,65.94414666,63.92613636
75.45250858,66.10774014,63.98424099
75.50728988,66.25171527,64.06861063
75.63722127,66.47620069,64.17324185
75.66541595,66.56185678,64.24646226
75.78516295,66.74442539,64.36492281
75.85098628,66.89172384,64.43610635
75.90887650,67.06882504,64.34476844
76.00761149,67.30070755,64.53955832
75.49882075,66.87382075,63.95079331
75.18203259,66.41595197,63.69661235
74.70711835,65.67345626,63.19275300
74.37650086,65.15373070,62.93267581
74.37789451,65.03719983,62.92292024
74.39633362,64.95272298,62.95079331
74.37221269,64.87156947,62.91059177
74.33061750,64.75171527,62.82311321
74.37435678,64.84562607,62.90201544
74.45154374,64.92388508,62.93953688
74.48595626,64.96151372,62.96258576
74.46344340,64.96794597,62.96837479
74.48231132,64.96129931,62.93664237
74.54974271,65.03859348,63.00300172
74.55499571,65.12253431,62.99453259
74.67174099,65.30381647,63.20261578
74.70540309,65.42731561,63.19532590
74.83083190,65.57847341,63.31796741
74.87274871,65.71580189,63.41048456
74.94521870,65.84637650,63.45851201
75.00728988,65.97898799,63.49892796
75.00557461,66.04459691,63.53709262
75.13314751,66.22855918,63.62371355
75.18160377,66.33554889,63.70754717
75.26189966,66.50889794,63.81700257
75.35924099,66.68235420,63.89740566
75.38700686,66.81346484,63.88915094
75.24914237,66.69939966,63.85763293
74.71012007,65.93224700,63.33211835
74.30853345,65.28580617,62.98263293
74.15619640,64.95079331,62.77454974
74.07354202,64.78344768,62.69082333
74.07171955,64.63647084,62.63882933
73.94414666,64.42077616,62.51683105
73.99849914,64.36856775,62.56560892
73.99431818,64.39933533,62.54406089
74.04631218,64.46397942,62.56710978
74.04180961,64.44982847,62.62156947
73.99828473,64.41380789,62.59283877
74.00257290,64.41595197,62.63078902
74.05113636,64.42013293,62.59680532
74.12124786,64.52390652,62.68213979
74.15094340,64.59198113,62.70904803
74.20325901,64.69811321,62.73520583
74.24924957,64.78998714,62.80542453
74.26157804,64.90287307,62.89665523
74.36749571,65.03066038,62.96740995
74.41541595,65.11695969,63.02262007
74.46869640,65.23563465,63.04245283
74.50471698,65.32740137,63.12928816
74.60677530,65.48670669,63.21976844
74.66756003,65.59937822,63.33158233
74.70808319,65.70765437,63.33930103
74.80424528,65.85463122,63.39837050
74.83147513,65.92302744,63.45004288
74.84809177,66.02990995,63.50889794
74.38025300,65.44157376,63.07086192
73.87510720,64.64204545,62.62424957
73.60323756,64.05285163,62.28677101
73.51168525,63.73810034,62.11052744
73.40769726,63.51768868,61.99174528
73.24120926,63.20433105,61.85313036
73.13765009,62.95561750,61.77722985
73.16337907,62.95561750,61.81024871
73.19886364,62.99088765,61.81914666
73.27722985,63.05874786,61.88550600
73.26050600,63.04395369,61.87971698
73.25428816,63.01801029,61.87821612
73.27819468,63.03527015,61.85581046
73.33179674,63.09894940,61.92763722
73.41723842,63.18653516,61.98820755
73.48123928,63.31035592,62.07450686
73.57783019,63.46783877,62.17967410
73.61771012,63.55638937,62.14879931
73.65383791,63.67527873,62.22802316
73.71033448,63.76350772,62.26886792
73.78173242,63.87950257,62.34391081
73.84337479,64.00653945,62.43942967
73.95197256,64.20583190,62.53473413
73.99731990,64.32450686,62.61717410
74.11299314,64.49721269,62.71783877
74.19768439,64.65330189,62.80338765
74.19972127,64.73745712,62.82729417
74.28505575,64.88647084,62.92892367
74.34616209,65.03462693,62.98595626
74.48381218,65.26297170,63.11695969
74.41359348,65.26243568,63.09562607
74.00289451,64.73960120,62.71580189
73.50750429,64.03602058,62.23970840
73.30403087,63.59777015,62.03623499
73.27454974,63.38561321,61.95915523
73.21848199,63.17560034,61.92002573
73.10956261,62.98777873,61.78237564
73.00761149,62.83201115,61.68557033
73.07246998,62.89365352,61.72963122
73.19489708,63.03945111,61.85698971
73.24067324,63.10002144,61.92141938
73.26179245,63.12071184,61.93846484
73.25460978,63.14783448,61.91241424
73.36374357,63.26640223,62.03183962
73.39386792,63.36020583,62.05253002
73.53409091,63.52765866,62.17281304
73.58822899,63.70979846,62.23895798
73.61427959,63.78816467,62.29931389
73.75653945,63.96708834,62.41927530
73.78569897,64.07300600,62.48509863
73.86685249,64.23713551,62.53473413
73.90598199,64.33908662,62.54963551
74.00321612,64.59048027,62.72512864
74.15137221,64.73027444,62.77251286
74.18867925,64.85205832,62.86020583
74.22587907,65.02240566,62.94650515
74.31035592,65.16348628,63.03183962
74.38882933,65.32772298,63.09873499
74.44018010,65.50214408,63.17517153
74.56410806,65.69253859,63.29095197
74.67259863,65.86856775,63.39858491
74.72405660,66.02379931,63.48756432
74.68524871,66.01886792,63.46740995
74.20207976,65.35774014,62.97673671
73.77540738,64.73874357,62.61824614
73.56903945,64.34626930,62.36749571
73.56678816,64.23595626,62.32493568
73.54438250,64.07461407,62.29395369
73.39869211,63.87703688,62.14504717
73.41080617,63.84005146,62.21762436
73.47062607,63.87414237,62.24957118
73.57890223,63.98885077,62.32461407
73.58587050,64.00846913,62.35130789
73.61878216,64.06196398,62.32718696
73.64901372,64.07890223,62.36706690
73.67066895,64.18589194,62.44125214
73.75611063,64.28805746,62.50675386
73.81689537,64.38850772,62.58147513
73.92367067,64.56089194,62.66530875
73.98231132,64.65062178,62.72952401
74.06507290,64.84187393,62.77562178
74.11685249,64.92152659,62.81410806
74.19822041,65.06893225,62.92635077
74.21590909,65.15265866,62.97191252
74.31593053,65.33436964,63.02583619
74.38829331,65.46505146,63.07182676
74.47662950,65.60334477,63.16423671
74.60002144,65.78505575,63.30542453
74.63089623,65.87939537,63.32986707
74.71923242,66.06700257,63.45808319
74.77015437,66.20368782,63.50064322
74.87660806,66.38153945,63.62467839
74.92034734,66.50096484,63.66241424
74.74796312,66.32000429,63.53655660
74.27036878,65.63700686,63.03430532
73.85130789,64.96451544,62.69007290
73.76575901,64.65340909,62.51918954
73.72684391,64.47920240,62.48563465
73.70283019,64.33597770,62.43353345
73.59176672,64.15008576,62.33233276
73.66680961,64.15973413,62.36899657
73.71387221,64.23016724,62.42420669
73.79513293,64.26361492,62.44243139
73.84305317,64.25793310,62.45647513
73.76511578,64.19478988,62.36738851
73.78216123,64.24356775,62.40008576
73.85806175,64.30338765,62.51415094
73.95068611,64.43567753,62.60184391
74.03173242,64.56496569,62.65051458
74.13957976,64.69511149,62.74313894
74.18364065,64.81250000,62.74174528
74.25686106,64.90072899,62.86685249
74.32375643,65.04138079,62.91895369
74.35623928,65.10966981,62.99860635
74.43096055,65.29331046,63.06989708
74.51093482,65.40523156,63.15051458
74.59090909,65.50921955,63.18503431
74.67581475,65.66895369,63.28216123
74.71837479,65.80435249,63.31228559
74.86213551,65.95926244,63.44575472
74.74517581,65.90834048,63.37918096
74.32354202,65.28816467,62.92688679
73.78870069,64.49217410,62.43256861
73.55660377,63.91873928,62.15094340
73.49699828,63.71226415,62.03430532
73.45518868,63.49828473,62.02508576
73.41187822,63.31174957,61.95540309
73.39000858,63.22212693,61.92967410
73.49474700,63.31871784,61.98102487
73.56314322,63.40169383,62.06442967
73.53376930,63.41348628,62.00160806
73.57836621,63.41241424,62.07772298
73.55563894,63.41477273,62.08608491
73.59659091,63.47394940,62.10709691
73.72051887,63.60302316,62.17635077
73.85784734,63.76522298,62.31518010
73.96194254,63.93299743,62.44414666
74.00182247,64.03334048,62.47630789
74.07332762,64.18096055,62.55874786
74.12231990,64.29491852,62.61417238
74.25192967,64.46054889,62.67109777
74.28387650,64.55853345,62.69725557
74.39172384,64.72191252,62.78344768
74.42978130,64.81228559,62.86117067
74.52926672,65.00546741,62.97673671
74.59777015,65.15566038,63.05295883
74.66616638,65.31132075,63.11192110
74.69457547,65.39376072,63.19393225
74.29802744,64.88036021,62.83211835
73.76854631,63.98659949,62.29834906
73.46740995,63.34283877,61.94082333
73.34777015,63.03108919,61.80124357
73.25568182,62.87039022,61.67184820
73.11738851,62.59616209,61.57021870
73.12349914,62.51993997,61.51801029
73.14451115,62.53430532,61.60098628
73.29245283,62.73434820,61.77186964
73.33029588,62.82129074,61.77454974
73.41648799,62.94564751,61.83651372
73.47877358,63.01993997,61.90523156
73.53291166,63.09659091,61.96408662
73.65287307,63.29459691,62.07182676
73.72662950,63.41295026,62.10806175
73.88314751,63.64622642,62.26543739
73.94972127,63.80542453,62.38068182
74.07064751,63.99689108,62.45315180
74.17281304,64.19361063,62.52787307
74.24624786,64.32150515,62.64376072
74.36320755,64.52722985,62.74185249
74.41080617,64.70132933,62.80960549
74.51350772,64.92860206,62.90415952
74.58619211,65.10377358,63.06153516
74.69575472,65.31732419,63.13529160
74.82493568,65.57407804,63.28119640
74.84015866,65.67592196,63.30906947
74.98584906,65.92431389,63.43632075
75.04202401,66.06968268,63.50964837
75.12918096,66.31743139,63.57536449
75.26479417,66.59326758,63.76543739
75.25996998,66.65533877,63.70400943
74.84562607,66.15909091,63.36599485
74.32868782,65.38636364,62.97148370
74.17560034,64.99099485,62.69296741
74.09208834,64.84187393,62.68299743
74.12017581,64.81035592,62.69478988
74.03151801,64.64493997,62.58662093
74.00150086,64.59755575,62.56453688
74.07975986,64.65544597,62.63464837
74.19586192,64.86653087,62.75439537
74.26575901,64.98981561,62.80156518
74.28066038,65.06625214,62.82397084
74.34165952,65.17099057,62.92763722
74.37757290,65.30360206,62.91873928
74.48788593,65.48402659,63.08308319
74.57075472,65.64172384,63.16680961
74.68942967,65.87231990,63.31271441
74.77787307,66.04888508,63.40115780
74.85784734,66.19982847,63.41273585
74.99710549,66.41219983,63.55735420
75.00407376,66.52873070,63.55338765
75.10688250,66.76447256,63.67377787
75.16509434,66.88550600,63.69575472
75.28537736,67.12028302,63.82718696
75.35388079,67.27519297,63.95658233
75.44682676,67.45454545,63.97319897
75.59787736,67.66262864,64.07879503
75.64826329,67.81400086,64.12424957
75.75096484,68.05628216,64.30906947
75.77990995,68.18492710,64.25718268
75.88539880,68.38625643,64.34980703
75.91380789,68.55681818,64.49485420
76.05135077,68.79599057,64.60495283
75.92838765,68.76393654,64.50128645
75.53805746,68.23852916,64.16005575
75.14729846,67.61427959,63.86363636
74.97845197,67.30092196,63.69478988
75.01189966,67.27990995,63.69671955
75.01061321,67.18578473,63.74410377
74.95186535,67.06099914,63.62424957
74.92109777,66.98434820,63.59755575
75.00064322,67.04030875,63.63443396
75.03634220,67.09358919,63.69607633
75.06989708,67.15051458,63.69511149
75.07311321,67.15608919,63.69596913
75.05949828,67.14762007,63.70015009
75.17174099,67.23606346,63.75986278
75.19864923,67.27369211,63.80756861
75.25525300,67.40448113,63.87875214
75.31582333,67.50042882,63.93439108
75.35731132,67.59573328,63.85581046
75.40812607,67.69564751,63.89976415
75.49003002,67.81850343,64.01404374
75.56389365,67.96204974,64.10184391
75.57718696,68.01136364,64.11663808
75.66091338,68.16434391,64.14890652
75.69328902,68.25868353,64.25032161
75.74721269,68.41616638,64.31496569
75.79245283,68.50278731,64.32482847
75.84637650,68.63153945,64.39483276
75.92956690,68.74603345,64.48767153
75.96708834,68.87360635,64.48531304
75.84273156,68.79406089,64.43321184
75.42892367,68.15919811,64.03033877
75.07450686,67.50568182,63.72287736
74.90480274,67.08211835,63.54781304
74.87821612,66.94789880,63.50771870
74.82793739,66.71858919,63.41756003
74.72748714,66.52615780,63.38207547
74.66831046,66.38379074,63.30253002
74.73477702,66.43331904,63.35656089
74.75107204,66.42324185,63.32011149
74.73156089,66.36771012,63.29888508
74.71901801,66.30928388,63.31571612
74.70722556,66.29577616,63.26897513
74.72319897,66.26093482,63.20047170
74.84230274,66.40019297,63.36803173
74.89086621,66.48241852,63.39000858
74.94864923,66.54063036,63.48552744
75.04631218,66.66509434,63.55531732
75.06325043,66.71290738,63.54759863
75.10398799,66.79909949,63.60291595
75.10966981,66.86695969,63.60345197
75.17849485,66.99024443,63.70100772
75.22780875,67.06378645,63.71901801
75.25889794,67.16648799,63.72373499
75.35634648,67.28795026,63.85077187
75.39483276,67.36653087,63.85388079
75.49367496,67.51597341,63.93728559
75.25493139,67.22770154,63.71269297
74.73885077,66.46140652,63.25557461
74.39536878,65.76629503,62.98113208
74.19704117,65.32461407,62.73563465
74.12264151,65.09433962,62.64665523
74.02176244,64.82750858,62.57064751
73.94554031,64.58168954,62.43610635
73.91241424,64.42442110,62.34208834
73.97416381,64.48274014,62.43964408
74.02637221,64.55124357,62.48756432
74.01490137,64.52262007,62.42570755
74.01297170,64.52497856,62.47780875
73.99603345,64.48145369,62.44436106
74.03827187,64.55113636,62.49517581
74.12167667,64.64483276,62.57300600
74.21590909,64.81325043,62.70433105
74.26425815,64.91091338,62.69350343
74.30145798,65.01286449,62.76608062
74.35945540,65.09701973,62.83608491
74.41927530,65.23767153,62.86631647
74.53108919,65.40801887,62.99614065
74.54781304,65.47984563,63.01801029
74.67903087,65.65008576,63.11192110
74.70411664,65.74378216,63.19575472
74.78205403,65.91948971,63.25996998
74.84819897,66.05617496,63.30853345
74.89654803,66.20443825,63.32493568
74.98595626,66.33308319,63.46301458
75.02337050,66.48456261,63.53259005
75.13111063,66.64826329,63.57986707
75.08629931,66.62660806,63.59594768
74.65823328,66.05038593,63.19554031
74.05971269,65.10966981,62.64654803
73.78033877,64.53891509,62.39976415
73.68021012,64.22073328,62.24088765
73.56946827,63.96312178,62.14686964
73.49699828,63.74635506,62.04180961
73.42013293,63.51447256,61.89054460
73.45358062,63.51533019,61.93106775
73.49924957,63.57236278,61.97437822
73.59380360,63.69200257,62.07965266
73.60334477,63.71848199,62.05081475
73.60827616,63.73820755,62.08683533
73.65415952,63.79030875,62.15030017
73.64440395,63.85709691,62.13668525
73.81968268,64.09798456,62.30124357
73.82847341,64.16831046,62.36084906
73.94886364,64.39418954,62.50225129
73.95658233,64.49410377,62.49453259
74.08351201,64.62210549,62.56207118
74.15298027,64.76232847,62.63797170
74.20475986,64.90201544,62.71462264
74.29202401,65.04309605,62.84519726
74.32740137,65.17066895,62.85291595
74.45626072,65.41037736,63.02744425
74.49539022,65.56807461,63.08415523
74.60002144,65.74003002,63.13604202
74.66209262,65.87156947,63.28323328
74.71087050,65.97437822,63.21065609
74.76404374,66.11910377,63.33115352
74.89472556,66.33533448,63.45668954
75.00482419,66.53934391,63.52626501
74.84037307,66.33994425,63.39526158
74.27905232,65.63003859,62.92099057
73.77004717,64.78848628,62.45979846
73.57890223,64.31646655,62.27658662
73.46944683,64.04963551,62.11074185
73.41831046,63.81325043,62.01200686
73.29266724,63.58147513,61.87307033
73.26575901,63.48745712,61.86481561
73.32900943,63.55542453,61.96687393
73.39901372,63.63636364,62.00171527
73.48970840,63.78259005,62.08061750
73.44446827,63.77294168,62.07847341
73.48799314,63.81367925,62.03151801
73.57193396,63.88625643,62.16584477
73.64890652,64.04792024,62.23938679
73.80017153,64.24228130,62.38357633
73.86856775,64.41745283,62.48799314
73.91455832,64.60302316,62.51490137
73.97384220,64.69425386,62.55853345
74.06507290,64.83201115,62.65769726
74.08930103,64.88518439,62.68299743
74.17409949,65.05102916,62.75728988
74.21676672,65.17838765,62.79588336
74.23241852,65.27272727,62.85934820
74.30928388,65.46708834,62.97287736
74.36277873,65.56668096,63.01350772
74.47137650,65.73659949,63.08715695
74.54470412,65.86846055,63.18235420
74.66166381,66.03216123,63.29995712
74.68900086,66.16455832,63.31292882
74.56507290,66.02583619,63.17635077
74.02605060,65.28462693,62.77154803
73.60077187,64.50171527,62.27937393
73.37768010,63.98016724,61.99195969
73.29202401,63.72555746,61.89086621
73.26157804,63.54009434,61.83083190
73.10827616,63.29588336,61.69382504
73.13593482,63.30746141,61.73756432
73.24517581,63.40362350,61.88368353
73.27262007,63.44586192,61.85795455
73.29384648,63.46665952,61.88239708
73.25621784,63.45004288,61.79995712
73.29963551,63.46944683,61.83351201
73.31743139,63.50975557,61.89097341
73.40051458,63.62971698,61.95111492
73.41423671,63.78280446,62.01114923
73.56400086,63.94350343,62.15876930
73.66295026,64.06989708,62.20047170
73.63068182,64.17999571,62.20400943
73.73542024,64.34069468,62.33683533
73.78634220,64.42099057,62.33394082
73.88657804,64.56239280,62.41852487
73.91563036,64.63797170,62.46237136
74.00589623,64.84123070,62.59637650
74.08222556,64.96816038,62.63732847
74.15448113,65.13754288,62.71601630
74.23552744,65.29920669,62.85216552
74.07397084,65.08855060,62.66102058
73.51243568,64.32311321,62.13936535
73.07654374,63.58083190,61.70475986
72.92978130,63.14954974,61.47244854
72.93203259,62.98927959,61.44639794
72.85398799,62.81646655,61.37414237
72.83222556,62.74517581,61.38282590
72.87317753,62.74153087,61.36953259
72.99946398,62.93042453,61.50396655
73.05596055,63.00471698,61.54909949
73.12843053,63.14665523,61.63957976
73.11642367,63.16102058,61.63271870
73.23574185,63.28334048,61.70100772
73.32493568,63.42913808,61.76490137
73.40544597,63.57675815,61.87242710
73.55456690,63.81936106,62.02540738
73.62178388,64.00857633,62.13078902
73.72716552,64.21794597,62.22244854
73.78709262,64.39558319,62.35870497
73.87435678,64.59283877,62.36642367
74.02069039,64.82965266,62.52605060
74.08651372,65.00010720,62.61953259
74.15801887,65.23091767,62.64515437
74.24549743,65.37971698,62.72534305
74.40019297,65.64440395,62.86117067
74.47630789,65.87124786,62.91198542
74.59509005,66.07986707,63.09423242
74.34337479,65.79427530,62.86524443
73.86824614,65.13539880,62.44650515
73.62703688,64.70829760,62.22116209
73.51951115,64.51565180,62.14536878
73.53923671,64.43674957,62.12114065
73.47727273,64.29759863,62.03323328
73.43707118,64.23424099,61.98209691
73.43514151,64.28269726,61.99367496
73.60581046,64.51168525,62.22266295
73.67474271,64.64172384,62.29009434
73.71998285,64.74614065,62.31753859
73.76082762,64.83115352,62.37746569
73.76479417,64.93031732,62.37671527
73.90469554,65.12231990,62.53098199
73.96773156,65.29727702,62.57600772
74.11524443,65.51575901,62.77519297
74.18085334,65.70679674,62.86031304
74.27862350,65.85752573,62.89333190
74.40158662,66.08962264,62.92945969
74.42699400,66.20551029,63.00117925
74.50214408,66.40351630,63.08683533
74.55531732,66.55939108,63.16573756
74.67174099,66.75943396,63.23284734
74.78516295,67.00364494,63.37071184
74.83651372,67.16563036,63.40598199
74.95915523,67.38604202,63.58865780
74.97802316,67.58158233,63.52562178
75.04406089,67.76425815,63.63925815
75.13003859,67.92677959,63.73102487
75.22341338,68.15951973,63.85398799
75.18385506,68.15984134,63.81786021
74.71837479,67.61031304,63.49817753
74.43760720,67.18374786,63.20518868
74.33286878,66.95743997,63.12875214
74.29470412,66.91970412,63.10195111
74.26457976,66.79545455,63.06668096
74.21430103,66.63582762,62.94135935
74.16005575,66.59852058,62.88518439
74.28494854,66.70325901,63.02379931
74.33040309,66.79631218,63.08211835
74.36192110,66.87349914,63.12585763
74.38636364,66.90801887,63.16809605
74.37617925,66.93471269,63.13003859
74.44864923,67.05435249,63.25525300
74.48466981,67.13840051,63.23402659
74.57825901,67.26886792,63.36513722
74.60902659,67.38775729,63.38818611
74.66734563,67.50696827,63.38775729
74.70626072,67.59391081,63.48863636
74.75493139,67.71440823,63.55360206
74.80499571,67.84766295,63.55328045
74.84605489,67.96869640,63.63915094
74.95304460,68.13700686,63.74678388
74.97212693,68.20283019,63.78087479
75.06410806,68.40115780,63.83361921
75.06635935,68.48402659,63.84187393
75.17002573,68.67581475,64.03859348
75.12049743,68.75943396,63.94575472
75.21719554,68.91037736,64.08897942
75.27272727,69.06239280,64.13786449
75.34777015,69.19596913,64.23713551
75.45540309,69.34862779,64.37692967
75.50257290,69.46569468,64.36127787
75.52551458,69.53623499,64.45197256
75.18149657,69.09015866,64.09401801
74.75364494,68.49935678,63.76200686
74.54009434,68.05660377,63.49485420
74.54641938,67.92484991,63.45765437
74.57364923,67.75804031,63.43235420
74.53183962,67.54256003,63.31936106
74.47394940,67.32858062,63.19478988
74.53151801,67.31346484,63.28859348
74.57997427,67.31367925,63.31560892
74.55338765,67.25728988,63.26243568
74.55831904,67.19296741,63.26029160
74.51318611,67.13175386,63.28205403
74.53098199,67.10623928,63.28312607
74.59026587,67.11642367,63.33940823
74.62714408,67.16916810,63.33147513
74.68910806,67.25643225,63.37778731
74.70711835,67.28108919,63.37821612
74.76876072,67.35623928,63.45615352
74.74924957,67.40019297,63.41005575
74.81635935,67.47587907,63.47244854
74.84283877,67.52422813,63.48048885
74.90973413,67.62006861,63.58018868
74.94500429,67.69671955,63.55349485
74.98842196,67.78430532,63.62650086
75.00053602,67.92077616,63.62274871
75.10120069,68.01050600,63.74592624
75.16445111,68.12821612,63.78516295
75.20615352,68.23145369,63.87810892
75.31775300,68.36642367,63.91059177
75.21869640,68.35999142,63.92517153
74.87757290,67.80467410,63.50192967
74.45293739,67.11117067,63.21837479
74.29438250,66.67388508,63.01372213
74.26232847,66.45894082,62.92742281
74.21569468,66.25643225,62.83662093
74.12435678,66.02465695,62.77379931
74.06303602,65.85741852,62.70025729
74.11545883,65.90255146,62.74388937
74.13025300,65.87532161,62.72909520
74.13711407,65.84337479,62.80177959
74.08704974,65.73649228,62.67452830
74.05135077,65.64569039,62.64418954
74.06989708,65.64322470,62.59326758
74.13904374,65.71816038,62.67849485
74.22759434,65.80370926,62.79534734
74.23702830,65.87424957,62.84509005
74.30424528,65.96548027,62.85956261
74.31485849,66.00396655,62.86352916
74.40351630,66.12156947,62.96054889
74.40769726,66.17377787,62.95829760
74.49153087,66.28505575,63.00032161
74.54609777,66.40759005,63.09069468
74.55006432,66.46880360,63.04427530
74.67141938,66.63625643,63.16906089
74.72319897,66.72963122,63.25836192
74.75932676,66.85538165,63.25482419
74.45272298,66.44822041,62.99967839
73.99528302,65.75836192,62.60077187
73.72587907,65.20786878,62.38925815
73.64686964,64.92881647,62.27808748
73.60087907,64.68428388,62.16005575
73.47427101,64.45090051,62.07354202
73.41723842,64.27615780,61.97791595
73.40544597,64.26951115,62.00943396
73.48520583,64.31067753,62.05253002
73.50761149,64.32879503,62.06185678
73.49453259,64.31357204,62.09723413
73.49356775,64.30060034,62.06560892
73.51329331,64.33319039,62.08704974
73.58179674,64.40255146,62.16069897
73.67367067,64.54116638,62.20283019
73.74485420,64.69939966,62.32525729
73.74689108,64.77197684,62.32515009
73.87993139,64.95668954,62.48048885
73.93771441,65.04641938,62.50589623
73.96783877,65.18910806,62.55038593
74.05167238,65.33276158,62.58704974
74.10495283,65.47394940,62.65876930
74.22888079,65.69436106,62.80306604
74.27862350,65.79320326,62.85152230
74.39547599,66.01254288,62.94393225
74.41166381,66.14408233,62.97727273
74.56571612,66.37167667,63.17270583
74.55188679,66.42924528,63.14451115
74.30081475,66.16766724,62.85720412
73.85152230,65.54491852,62.49067324
73.63100343,65.17088336,62.35248714
73.64440395,65.07129074,62.38282590
73.60795455,64.95743997,62.28891509
73.53923671,64.84433962,62.24271012
73.46355060,64.69425386,62.12864494
73.58897942,64.82139794,62.26565180
73.68128216,64.98788593,62.37553602
73.72566467,65.07150515,62.40598199
73.76243568,65.14301029,62.44854202
73.75900515,65.17152659,62.43739280
73.88282590,65.33972985,62.55070755
73.90619640,65.43342624,62.60237993
74.03087479,65.65587479,62.67024014
74.10623928,65.82129074,62.77883791
74.19018010,65.97255575,62.83640652
74.28269726,66.16991852,62.97888079
74.33629931,66.28226844,62.98231132
74.43481990,66.50793310,63.07332762
74.47223413,66.63539880,63.07600772
74.57225557,66.88400515,63.31003431
74.74421098,67.12907376,63.31110635
74.73059605,67.23895798,63.34037307
74.82043310,67.48295455,63.47137650
74.82525729,67.65673242,63.53301887
74.98456261,67.90994854,63.60355918
75.00643225,68.03387650,63.71183533
75.09948542,68.29223842,63.84498285
75.22469983,68.52251286,63.96140652
75.21891081,68.67988851,63.96740995
75.01715266,68.48027444,63.85227273
74.61631647,67.99474700,63.51318611
74.47984563,67.87114065,63.43481990
74.52240566,67.89461835,63.46280017
74.54170240,67.92270583,63.47030446
74.53827187,67.91069897,63.47437822
74.53569897,67.91370069,63.50889794
74.57311321,67.93996569,63.53087479
74.71280017,68.16820326,63.63968696
74.74528302,68.29395369,63.66337907
74.77133362,68.33201115,63.73274014
74.81185678,68.43063894,63.80392367
74.83533448,68.50428816,63.82761578
74.88775729,68.63647084,63.85838336
74.94704117,68.76050600,63.92667238
75.00643225,68.90008576,63.98584906
75.07032590,69.04738422,64.07933105
75.07965266,69.16627358,64.15062178
75.17838765,69.32933105,64.24185249
75.22502144,69.45593911,64.31314322
75.29213122,69.65255146,64.42699400
75.31978988,69.72545026,64.42742281
75.43803602,69.93546312,64.57204117
75.44093053,70.03977273,64.60280875
75.45776158,70.19210978,64.62778731
75.55317324,70.38893654,64.76843911
75.62596484,70.54620497,64.83072470
75.71365780,70.72051887,64.95336621
75.74924957,70.86974700,64.98852916
75.82847341,71.06389365,65.10313036
75.83340480,71.17259863,65.12928816
75.92324185,71.36513722,65.26908233
75.87650086,71.42409949,65.25857633
75.55017153,71.03987993,64.96290738
75.28602058,70.64236707,64.71097770
75.22630789,70.52926672,64.65748285
75.24871355,70.53730703,64.69746998
75.25557461,70.53194683,64.70004288
75.25064322,70.50364494,64.69746998
75.23252573,70.44135935,64.63282590
75.29063036,70.49474700,64.72051887
75.35666810,70.58008148,64.76254288
75.36063465,70.60977702,64.80638937
75.37006861,70.63271870,64.77915952
75.39762007,70.61245712,64.79470412
75.42710120,70.66509434,64.81067753
75.42677959,70.70207976,64.86653087
75.49560463,70.77369211,64.90791166
75.53912950,70.82836621,64.94907804
75.59348199,70.95111492,64.98006003
75.59626930,70.99485420,65.01029160
75.67592196,71.12124786,65.10859777
75.71633791,71.18953688,65.11642367
75.71944683,71.25911235,65.12789451
75.76500858,71.33426244,65.16981132
75.78827187,71.37939537,65.21087050
75.89483276,71.52497856,65.30628216
75.87296312,71.56828902,65.28977273
75.95443825,71.70722556,65.36545883
76.01211407,71.82986707,65.46794597
76.03537736,71.89944254,65.52572899
76.10656089,72.03280446,65.57054031
75.94875643,71.82504288,65.42817324
75.56078473,71.28977273,65.02883791
75.32986707,70.83329760,64.84659091
75.35634648,70.73970840,64.84819897
75.32654374,70.62542882,64.81153516
75.34509005,70.51725986,64.74946398
75.31325043,70.37542882,64.62307033
75.36985420,70.36878216,64.68074614
75.41037736,70.38850772,64.70497427
75.39172384,70.33962264,64.68696398
75.36138508,70.20679674,64.64418954
75.36427959,70.13443396,64.61470840
75.38100343,70.09326758,64.60184391
75.37521441,70.08554889,64.56325043
75.43181818,70.13636364,64.62435678
75.45958405,70.14869211,64.67356346
75.49056604,70.19854202,64.71976844
75.52744425,70.21612350,64.71933962
75.53323328,70.24914237,64.73263293
75.57750858,70.29406089,64.75761149
75.59155232,70.31453688,64.75964837
75.62542882,70.34155232,64.76029160
75.65222985,70.37564322,64.82289880
75.74356775,70.50921955,64.88829331
75.75460978,70.59616209,64.96408662
75.79577616,70.64847770,64.95207976
75.66680961,70.43696398,64.84798456
75.24967839,69.81936106,64.37875214
75.03076758,69.31057033,64.17184820
74.93599914,69.06635935,64.02862350
74.92581475,68.89858491,64.03730703
74.89804889,68.69414666,63.92399228
74.79663379,68.47995283,63.78848628
74.82890223,68.38379074,63.73927959
74.87821612,68.37821612,63.79888508
74.89086621,68.35999142,63.81367925
74.83233276,68.20090051,63.71719554
74.81442967,68.13304031,63.67463551
74.77915952,68.07075472,63.64794168
74.80263722,68.04556175,63.62982419
74.82933105,68.06196398,63.72813036
74.85559605,68.06721698,63.70229417
74.91487993,68.11406518,63.77401372
74.93299743,68.12231990,63.81099914
74.97791595,68.19125214,63.82439966
75.01179245,68.24099485,63.84841338
75.06646655,68.30746141,63.92238422
75.07171955,68.37382075,63.88882933
75.12532161,68.43728559,63.96966123
75.20218696,68.54909949,64.06089194
75.18074614,68.60120069,64.05789022
75.25975557,68.70122213,64.09251715
75.30231561,68.78580617,64.14150943
75.37778731,68.94103774,64.21826758
75.41391509,69.02219125,64.24517581
75.19060892,68.76050600,64.09498285
74.79974271,68.15759005,63.70004288
74.58265437,67.76340051,63.47330617
74.57214837,67.59187393,63.43578473
74.52101201,67.37285592,63.35784734
74.51779588,67.28194683,63.38872213
74.42399228,67.00182247,63.23466981
74.43439108,66.97169811,63.25664666
74.47480703,66.98231132,63.27283448
74.51157804,66.97405660,63.24399657
74.54448971,67.01147084,63.33436964
74.53848628,66.98359777,63.37703688
74.56046312,67.01114923,63.29416810
74.56389365,67.01672384,63.24721269
74.63668525,67.11567324,63.36760292
74.65962693,67.17592196,63.35988422
74.78194683,67.34112350,63.53537736
74.80874786,67.40222985,63.48670669
74.88003859,67.49603345,63.55606775
74.92216981,67.59005146,63.63636364
74.93031732,67.69939966,63.60741852
74.99935678,67.86535163,63.72041166
75.02744425,67.98520583,63.72855918
75.15598199,68.18042453,63.89397513
75.17677959,68.27755146,63.88990137
75.26007719,68.44489708,63.99163808
75.33865780,68.63046741,64.11631647
75.35227273,68.76522298,64.12821612
75.45175815,68.91487993,64.19554031
75.50300172,69.04245283,64.29030875
75.59723413,69.22287736,64.38818611
75.64043739,69.34626930,64.43503431
75.73692110,69.56089194,64.50986278
75.72823756,69.61824614,64.59466123
75.30724700,69.09112350,64.16895369
75.01951115,68.68246141,63.93717839
74.92785163,68.49667667,63.86846055
74.98016724,68.49796312,63.87253431
74.98263293,68.41788165,63.85634648
74.97073328,68.32257719,63.83972985
74.92517153,68.26822470,63.70797599
74.97641509,68.29652659,63.77444254
75.09937822,68.38111063,63.87746569
75.11288593,68.41134220,63.89311750
75.12028302,68.44468268,63.89879931
75.11963979,68.44168096,63.86535163
75.14697684,68.48466981,63.90662521
75.17892367,68.53784305,63.94564751
75.23863636,68.65373070,63.98842196
75.33490566,68.80467410,64.10227273
75.36728130,68.85355918,64.16187822
75.38786449,68.98649228,64.10913379
75.42345626,69.05810463,64.12392796
75.48885077,69.18224700,64.32161235
75.54716981,69.32032590,64.37821612
75.63228988,69.43546312,64.41788165
75.71687393,69.53912950,64.50439537
75.72019726,69.61449400,64.52851630
75.79352487,69.76093482,64.59369640
75.81367925,69.88464837,64.67002573
75.86738851,70.00589623,64.73123928
75.92259863,70.12714408,64.79159520
75.99485420,70.27015437,64.85270154
76.09176672,70.42731561,64.96783877
76.12317753,70.55542453,65.01940395
76.12982419,70.60237993,65.03441252
75.77519297,70.11653087,64.67313465
75.45540309,69.62650086,64.36170669
75.36674528,69.41627358,64.31871784
75.37285592,69.32611492,64.27272727
75.44157376,69.28291166,64.26318611
75.35098628,69.08147513,64.16680961
75.34423242,69.02519297,64.16906089
75.38636364,69.02358491,64.17066895
75.42774443,69.03173242,64.18739280
75.43321184,69.00696827,64.15319468
75.38689966,68.93492710,64.12167667
75.39837050,68.91337907,64.09476844
75.44071612,68.89033019,64.08501286
75.47309177,68.92785163,64.15469554
75.51876072,69.00868353,64.21087050
75.58897942,69.07375643,64.27058319
75.65662521,69.14333190,64.31593053
75.69554031,69.23906518,64.38765009
75.73499142,69.32139794,64.40008576
75.72866638,69.36974700,64.40791166
75.79588336,69.47555746,64.47255575
75.78795026,69.51093482,64.49592624
75.90716123,69.64279588,64.59669811
75.94243139,69.76147084,64.64526158
75.98220412,69.85141509,64.64879931
76.04781304,69.96569468,64.68481990
76.09669811,70.03280446,64.76093482
76.05092196,69.99774871,64.74517581
75.60666810,69.38561321,64.24388937
75.38454117,68.87446398,64.06485849
75.29952830,68.58619211,63.90716123
75.28130360,68.45990566,63.88829331
75.28141081,68.27004717,63.77690823
75.22051887,68.08008148,63.74581904
75.18653516,67.93717839,63.63336192
75.21537307,67.94178816,63.68578473
75.26297170,67.96129931,63.67442110
75.23606346,67.87435678,63.67581475
75.21269297,67.84755575,63.67409949
75.21612350,67.82675815,63.67517153
75.22577187,67.79995712,63.61556604
75.26843911,67.87714408,63.67109777
75.32815180,67.92184820,63.72695111
75.40544597,68.00707547,63.79138079
75.45701115,68.11481561,63.84230274
75.52647942,68.18621355,63.89054460
75.53312607,68.26468696,63.87489280
75.56174957,68.33383362,63.95947684
75.65973413,68.46998285,64.04888508
75.65072899,68.51693825,64.05917667
75.79459691,68.69897084,64.17538593
75.78066038,68.74485420,64.20218696
75.87382075,68.89054460,64.24110206
75.92088336,69.03752144,64.33597770
75.91134220,69.09294597,64.36224271
75.70733276,68.83018868,64.14022298
75.24731990,68.08501286,63.70829760
75.06839623,67.58254717,63.49013722
74.94521870,67.27519297,63.34037307
74.91402230,67.05638937,63.28623499
74.79341767,66.77733705,63.17763722
74.66959691,66.52744425,63.02272727
74.64751286,66.42924528,63.02551458
74.66777444,66.40855489,63.09337479
74.71526587,66.45025729,63.03151801
74.69403945,66.41144940,63.05703259
74.67345626,66.38743568,63.07525729
74.66906089,66.33801458,63.01340051
74.70561750,66.38078902,63.09498285
74.78451973,66.47620069,63.20368782
74.82579331,66.51768868,63.17699400
74.91069897,66.64933533,63.33715695
74.95808319,66.73445540,63.32107633
75.01436535,66.81818182,63.37371355
75.07289880,66.91037736,63.38464837
75.08951544,66.98252573,63.41219983
75.15137221,67.12907376,63.52722985
75.19982847,67.21783877,63.53666381
75.30606775,67.37467839,63.69071612
75.31057033,67.44478988,63.63068182
75.41702401,67.61470840,63.69789880
75.42495712,67.68267581,63.70004288
75.48906518,67.82397084,63.75750429
75.54824185,67.93739280,63.91016295
75.64804889,68.10709691,63.95229417
75.75107204,68.25557461,64.03945111
75.68921527,68.29084477,64.00203688
75.38539880,67.82236278,63.71001286
74.86545883,67.01297170,63.29084477
74.61717410,66.47094768,62.95508148
74.52154803,66.12768010,62.90319468
74.46076329,65.91273585,62.84626930
74.33426244,65.64000858,62.68567753
74.21022727,65.36224271,62.57257719
74.22394940,65.28827187,62.57836621
74.21580189,65.29813465,62.62596484
74.26972556,65.34605489,62.62392796
74.21419383,65.34391081,62.65137221
74.23788593,65.33008148,62.62167667
74.28987993,65.34326758,62.66402230
74.30113636,65.39140223,62.65019297
74.36631647,65.50632504,62.75739708
74.47094768,65.60087907,62.83029588
74.53119640,65.74989280,62.93599914
74.54052316,65.85291595,62.91552316
74.62660806,65.96408662,62.99260292
74.69221698,66.07557890,63.05499571
74.75996998,66.16069897,63.08243997
74.81153516,66.31067753,63.15694683
74.89225986,66.41348628,63.19093053
74.97126930,66.60248714,63.27101201
75.02111921,66.75503859,63.36331475
75.13014580,66.92452830,63.43353345
75.12660806,66.99453259,63.40662521
75.20679674,67.13304031,63.48038165
75.34626930,67.27208405,63.61728130
75.38314751,67.39043739,63.62885935
75.46451544,67.53119640,63.70336621
75.50514580,67.64901372,63.74206690
75.25825472,67.36545883,63.54749142
74.68364065,66.54599057,63.03891509
74.36288593,65.92249142,62.75117925
74.26661664,65.53677101,62.60302316
74.16252144,65.30274443,62.54395369
74.14043739,65.11749571,62.49914237
74.00568182,64.83801458,62.35173671
74.01415094,64.78409091,62.37928816
74.07182676,64.83040309,62.40866209
74.13743568,64.88679245,62.47019726
74.11578045,64.89751286,62.42474271
74.09380360,64.82257719,62.33222556
74.10656089,64.83554889,62.35077187
74.17892367,64.92249142,62.42935249
74.24860635,65.09187393,62.58672813
74.29727702,65.18514151,62.61224271
74.39493997,65.31518010,62.72319897
74.43353345,65.42216981,62.72105489
74.49764151,65.52594340,62.79416810
74.56903945,65.64172384,62.93589194
74.57643654,65.69393225,62.88304031
74.70325901,65.87692967,62.95861921
74.71987564,65.96537307,63.00075043
74.81325043,66.11856775,63.04824185
74.87907376,66.23198971,63.15351630
74.96065609,66.36824614,63.20336621
75.05960549,66.57847341,63.31003431
75.08704974,66.64987136,63.29009434
75.13636364,66.79202401,63.36063465
74.87607204,66.45175815,63.16809605
74.42999571,65.69950686,62.74817753
74.03409091,64.98284734,62.33554889
73.84401801,64.59358919,62.20443825
73.81132075,64.38400515,62.06796741
73.78505575,64.17935249,62.01983276
73.72051887,64.04534734,62.00525300
73.70047170,63.99914237,61.95175815
73.78827187,64.07279160,62.01125643
73.80628216,64.10452401,62.05713979
73.79813465,64.12274871,62.05499571
73.78516295,64.12885935,62.04245283
73.78998714,64.10473842,62.02948113
73.87532161,64.22759434,62.13389794
74.00943396,64.39429674,62.26479417
74.06861063,64.54695540,62.35891938
74.13957976,64.66530875,62.38915094
74.19275300,64.82868782,62.43674957
74.25064322,64.89644082,62.46290738
74.33812178,65.06475129,62.57632933
74.32965266,65.13689966,62.59659091
74.39804889,65.21087050,62.66584477
74.46676672,65.36513722,62.72684391
74.54952830,65.52229846,62.82847341
74.63164666,65.71548027,62.90180103
74.70272298,65.85237993,62.96966123
74.65362350,65.77369211,62.89140223
74.10688250,65.03655660,62.42806604
73.66959691,64.22727273,61.99849914
73.40930532,63.70647513,61.68867925
73.31325043,63.39386792,61.57997427
73.17742281,63.13475557,61.52497856
73.09509005,62.91605918,61.34937822
73.04320326,62.81121355,61.33951544
73.13014580,62.88572041,61.39279588
73.19371784,63.00718268,61.48895798
73.21022727,63.03762864,61.47587907
73.22952401,63.06164237,61.52154803
73.22759434,63.09873499,61.51340051
73.26436535,63.17495712,61.56818182
73.38454117,63.34787736,61.65169383
73.45272298,63.48574185,61.73810034
73.52883791,63.63196827,61.78912950
73.57279160,63.76811750,61.86267153
73.68867925,63.93117496,61.96526587
73.73306175,64.03752144,62.02015437
73.77572899,64.21204974,62.08533448
73.87542882,64.41445111,62.18803602
73.90694683,64.53087479,62.22898799
74.06410806,64.73434820,62.35420240
74.08715695,64.83972985,62.37575043
74.17870926,65.06635935,62.50653945
74.23359777,65.19843482,62.55692539
74.38636364,65.44060892,62.68503431
74.46837479,65.62853774,62.77240566
74.41605918,65.63818611,62.75761149
73.97105489,65.02594340,62.34991424
73.48156089,64.19746998,61.90373070
73.27583619,63.74003002,61.63496998
73.18417667,63.44210978,61.52680103
73.06035592,63.28248285,61.46944683
72.94489708,63.04631218,61.33383362
72.92141938,62.94521870,61.28548456
72.98113208,63.01436535,61.32011149
73.10838336,63.18835763,61.45079331
73.16895369,63.29545455,61.51865352
73.17860206,63.33276158,61.52851630
73.24581904,63.44693396,61.61481561
73.26136364,63.53194683,61.62628645
73.41691681,63.72116209,61.72995283
73.47234134,63.89301029,61.83704974
73.57129074,64.05306604,61.94371784
73.63057461,64.27915952,62.01822470
73.69972127,64.45529588,62.13089623
73.76329331,64.65501715,62.17710120
73.86352916,64.77133362,62.29984991
73.98156089,65.00085763,62.34176672
74.04974271,65.12349914,62.44875643
74.18299743,65.36481561,62.55542453
74.24506861,65.54373928,62.60591767
74.31968268,65.73070326,62.66595197
74.48113208,65.98306175,62.88765009
74.54909949,66.13550600,62.89515437
74.63904374,66.32086192,63.00289451
74.69982847,66.45990566,63.07225557
74.80060034,66.72469983,63.15951973
74.90437393,66.87478559,63.24056604
74.91059177,66.92216981,63.22448542
74.50075043,66.38518439,62.81571612
74.05210120,65.75686106,62.50064322
73.82225557,65.35441681,62.30724700
73.79834906,65.18535592,62.29856346
73.73424099,65.07943825,62.19864923
73.61663808,64.83404803,62.09090909
73.58383362,64.77958834,62.09348199
73.64354631,64.77862350,62.16627358
73.66927530,64.87403516,62.17313465
73.75514580,64.95883362,62.25364494
73.77530017,64.99035163,62.25814751
73.80671098,65.01039880,62.27476415
73.81357204,65.06978988,62.31400086
73.91595197,65.20047170,62.36106346
73.95926244,65.30789022,62.39965695
74.05263722,65.46558748,62.51618782
74.20583190,65.67002573,62.58619211
74.17978130,65.78248285,62.64183105
74.31207118,65.92956690,62.66584477
74.34884220,66.07075472,62.79159520
74.42399228,66.20057890,62.83158233
74.50364494,66.33426244,62.97598628
74.61781732,66.55199400,63.01618782
74.67227702,66.67892367,63.10966981
74.78698542,66.84894940,63.13111063
74.89547599,67.01511578,63.27390652
74.91027015,67.08544168,63.21129931
75.00954117,67.29470412,63.37210549
75.07279160,67.43321184,63.44264580
75.15072899,67.55360206,63.49678388
74.82129074,67.20615352,63.20872642
74.37092624,66.49828473,62.84562607
74.10034305,66.04009434,62.60698971
74.02133362,65.78569897,62.51640223
73.99035163,65.66638079,62.44018010
73.89697684,65.45443825,62.37103345
73.85977702,65.34305317,62.27830189
73.87939537,65.32107633,62.34187393
73.93310463,65.37435678,62.40566038
73.95186535,65.35066467,62.41670240
73.89697684,65.32129074,62.34444683
73.89386792,65.30960549,62.36213551
73.95604631,65.35205832,62.38593482
74.01715266,65.40265866,62.42774443
74.04438250,65.48391938,62.47834477
74.16916810,65.63336192,62.55403087
74.17517153,65.69854202,62.55210120
74.26811750,65.81571612,62.67442110
74.25675386,65.92828045,62.61996141
74.29813465,65.98767153,62.72695111
74.39965695,66.09262436,62.76672384
74.40726844,66.16177101,62.79899228
74.49206690,66.27208405,62.87950257
74.53162521,66.34123070,62.93299743
74.65962693,66.54899228,63.02883791
74.72491424,66.68825043,63.11320755
74.68213979,66.67399228,62.99067324
74.27154803,66.16670240,62.68835763
73.81453688,65.43825043,62.31732419
73.62317753,64.94093053,62.10452401
73.47480703,64.61931818,61.91691681
73.41873928,64.41166381,61.84005146
73.34905660,64.18696398,61.76736707
73.30349485,64.04341767,61.70508148
73.37242710,64.09155232,61.79802744
73.38807890,64.12607204,61.81110635
73.41906089,64.14526158,61.85130789
73.40533877,64.10473842,61.77262007
73.44532590,64.11642367,61.80102916
73.49088765,64.16048456,61.89762007
73.51951115,64.23327616,61.91166381
73.63539880,64.42785163,62.06721698
73.68289022,64.51200686,62.08983705
73.77862350,64.64140223,62.19521870
73.86159949,64.76297170,62.21087050
73.88411235,64.82858062,62.26597341
73.91295026,64.90930532,62.30638937
73.97920240,65.04223842,62.35398799
74.04888508,65.16680961,62.45626072
74.05135077,65.29256003,62.38389794
74.17688679,65.46891081,62.49035163
74.20829760,65.56335763,62.61310034
74.32397084,65.74056604,62.67452830
74.36449400,65.84798456,62.70583190
74.06625214,65.45647513,62.39536878
73.54556175,64.64997856,62.03827187
73.15115780,63.91788165,61.55574614
73.02765866,63.56003431,61.44018010
72.84080189,63.19950686,61.31957547
72.80703259,62.94232419,61.22191252
72.67592196,62.68814322,61.03248285
72.67367067,62.65458834,61.05917667
72.75332333,62.72823756,61.11438679
72.78955832,62.79148799,61.20894082
72.81700257,62.82793739,61.15855489
72.79899228,62.82965266,61.16112779
72.84894940,62.86352916,61.20658233
72.89043739,62.96590909,61.24978559
73.05424528,63.15265866,61.39987136
73.06550172,63.24131647,61.48359777
73.21665952,63.41884648,61.56528731
73.30081475,63.59669811,61.66273585
73.31024871,63.72277015,61.69361063
73.37414237,63.82311321,61.74056604
73.42409949,63.91402230,61.77744425
73.51951115,64.08919383,61.93653516
73.56968268,64.23970840,61.95025729
73.67099057,64.44028731,62.11503002
73.74238851,64.56464408,62.12789451
73.85280875,64.74624786,62.24882075
73.88025300,64.89140223,62.34208834
73.92731561,65.00042882,62.39965695
73.97437822,65.13947256,62.44157376
74.07343482,65.29577616,62.49410377
74.20390223,65.48499142,62.62821612
74.08897942,65.38143225,62.53516295
73.60420240,64.67259863,62.05338765
73.03602058,63.77787307,61.60484563
72.80124357,63.19554031,61.23413379
72.70315180,62.88475557,61.14633362
72.58533448,62.65694683,61.07590051
72.48895798,62.42056175,60.92527873
72.39611921,62.19650515,60.75846913
72.47491424,62.27615780,60.88336192
72.54566895,62.37371355,60.98048885
72.62478559,62.49056604,61.04888508
72.63496998,62.52819468,61.07686535
72.65566038,62.54159520,61.09991424
72.73059605,62.64011578,61.11931818
72.78955832,62.74174528,61.18492710
72.89837050,62.94318182,61.36856775
72.95722556,63.07129074,61.38990137
73.11310034,63.30778302,61.52647942
73.20647513,63.45390223,61.63765009
73.23670669,63.57311321,61.58683533
73.34187393,63.78441252,61.79213122
73.40737564,63.86706690,61.83426244
73.44114494,63.99367496,61.83329760
73.54448971,64.19307461,61.97695111
73.63507719,64.37285592,62.03194683
73.71880360,64.50418096,62.12532161
73.74742710,64.68310463,62.17088336
73.87339194,64.86095626,62.31099914
73.92624357,64.98542024,62.34048027
74.04888508,65.17967410,62.51286449
74.13068182,65.37768010,62.55263722
74.18160377,65.47255575,62.58104631
74.02905232,65.33972985,62.51897513
73.45904803,64.46183533,62.01222127
73.00589623,63.62832333,61.58179674
72.75653945,63.13068182,61.23702830
72.70593911,62.93321184,61.20207976
72.65308748,62.76393654,61.12242710
72.55681818,62.55660377,61.00664666
72.58479846,62.55499571,61.02583619
72.64118782,62.63153945,61.07107633
72.77283448,62.77004717,61.19714837
72.76940395,62.79727702,61.21129931
72.73788593,62.80349485,61.21537307
72.78634220,62.82107633,61.19886364
72.85495283,62.92763722,61.25075043
72.92945969,63.10827616,61.37521441
73.00611063,63.24346055,61.44050172
73.17484991,63.48531304,61.61910377
73.19682676,63.59562607,61.68546312
73.27626501,63.75010720,61.69221698
73.35677530,63.89944254,61.76500858
73.38925815,63.98081046,61.83780017
73.46172813,64.18578473,61.95315180
73.55253002,64.31968268,61.96097770
73.63807890,64.46676672,62.10141509
73.69071612,64.61888937,62.22587907
73.77830189,64.82697256,62.18331904
73.92753002,65.01779588,62.37307033
73.94500429,65.11931818,62.37167667
73.71537307,64.84852058,62.21172813
73.10527444,63.91895369,61.65201544
72.69243139,63.08865780,61.23874357
72.49453259,62.70443825,61.00182247
72.50203688,62.56421527,60.92420669
72.40512436,62.33972985,60.87081904
72.35538165,62.24024443,60.86310034
72.37274871,62.24603345,60.81057033
72.48499142,62.37821612,60.94725557
72.54202401,62.45904803,60.99571184
72.51082762,62.46408662,60.94886364
72.53945111,62.51114923,60.99614065
72.55896226,62.58469125,61.01222127
72.69125214,62.72427101,61.13400515
72.74303173,62.84230274,61.18921527
72.88936535,63.08083190,61.31196398
72.99807033,63.24485420,61.40866209
73.04588336,63.36642367,61.46183533
73.16155660,63.55821184,61.62575043
73.18932247,63.63679245,61.63957976
73.26189966,63.81721698,61.74238851
73.34852058,63.93085334,61.84080189
73.41863208,64.10838336,61.92313465
73.49431818,64.22352058,61.96215695
73.57268439,64.44103774,62.03987993
73.70047170,64.62885935,62.14772727
73.69478988,64.71237136,62.17120497
73.36374357,64.22652230,61.83715695
72.65405232,63.20786878,61.25804031
72.30381647,62.42903087,60.83876501
72.10645369,61.96108491,60.63089623
72.06989708,61.81024871,60.57246998
71.95047170,61.57461407,60.43096055
71.83383362,61.37778731,60.32354202
71.87692967,61.39922813,60.36942539
71.93610635,61.50686106,60.41123499
72.08512007,61.69596913,60.54802744
72.09251715,61.70808319,60.52605060
72.12264151,61.75536021,60.57011149
72.14193825,61.81925386,60.59048027
72.26854631,61.96472985,60.74646226
72.36685249,62.14193825,60.81625214
72.46001286,62.28591338,60.88239708
72.58115352,62.48831475,61.00568182
72.67849485,62.66563036,61.17399228
72.70433105,62.77637221,61.15158662
72.78955832,62.93771441,61.22287736
72.91734563,63.10495283,61.34916381
73.02958834,63.27765866,61.44146655
73.06786021,63.42163379,61.49474700
73.18921527,63.63432676,61.63625643
73.24003002,63.76876072,61.71022727
73.36149228,63.97277015,61.81903945
73.43010292,64.13872213,61.89322470
73.51790309,64.29127358,61.96944683
73.65598199,64.53269726,62.16841767
73.68535592,64.71322899,62.23874357
73.64794168,64.67174099,62.11963979
73.04341767,63.84894940,61.50396655
72.46944683,62.84980703,61.03977273
72.09669811,62.17002573,60.60870497
71.98381218,61.91713122,60.52519297
71.92860206,61.73563465,60.46376501
71.79084477,61.49689108,60.33265437
71.73885077,61.32761578,60.29459691
71.79491852,61.38368353,60.32665094
71.93460549,61.58083190,60.46805317
72.01854631,61.71215695,60.54148799
72.05424528,61.78237564,60.58297599
72.11202830,61.88282590,60.62017581
72.15683962,61.97480703,60.66391509
72.32311321,62.19854202,60.78795026
72.36653087,62.38389794,60.90040738
72.53366209,62.61449400,61.02680103
72.59980703,62.80928388,61.09380360
72.70776158,62.98627787,61.20518868
72.77208405,63.12457118,61.33383362
72.88250429,63.35484563,61.40265866
72.93814322,63.53419811,61.54491852
73.00235849,63.71140652,61.55167238
73.15876930,63.96194254,61.70336621
73.22855918,64.11106346,61.79459691
73.33029588,64.31614494,61.89290309
73.42892367,64.51618782,61.97716552
73.48166810,64.70250858,62.08565609
73.61009863,64.89397513,62.15490995
73.62950257,65.04395369,62.16595197
73.78451973,65.29223842,62.30210120
73.83801458,65.46537307,62.43514151
73.75278731,65.42324185,62.33018868
73.12564322,64.64622642,61.87521441
72.72823756,63.86481561,61.36781732
72.46601630,63.35409520,61.07322041
72.38625643,63.17163379,61.05649657
72.35774014,63.07986707,61.07279160
72.28076758,62.82772298,60.90319468
72.23584906,62.81968268,60.91573756
72.31239280,62.86492281,60.94596913
72.42581475,63.05124357,61.06518010
72.44371784,63.08994425,61.03934391
72.46419383,63.12006861,61.10098628
72.42431389,63.14429674,61.05789022
72.47577187,63.27701544,61.13529160
72.60280875,63.45508148,61.29577616
72.68417667,63.57139794,61.33640652
72.76350772,63.76886792,61.44618353
72.85355918,63.91809605,61.48842196
72.92334906,64.05092196,61.48574185
73.01189966,64.18835763,61.60495283
73.04963551,64.35087907,61.69157376
73.15062178,64.51125643,61.83265437
73.17849485,64.61695969,61.84444683
73.29320326,64.82665094,61.90662521
73.31743139,64.96044168,62.01468696
73.40190823,65.08544168,62.09852058
73.45936964,65.21901801,62.14912093
73.55638937,65.42109777,62.20261578
73.65169383,65.56936106,62.33758576
73.49860635,65.42699400,62.17099057
72.98123928,64.71280017,61.67442110
72.52958834,63.93331904,61.32654374
72.27980274,63.49356775,61.06603774
72.22051887,63.25503859,60.96537307
72.16680961,63.12328473,60.91037736
72.04041595,62.92099057,60.81807461
72.06871784,62.92677959,60.83222556
72.15962693,63.01125643,60.87660806
72.21762436,63.08512007,60.92988851
72.22963122,63.10870497,60.96397942
72.20004288,63.07289880,60.92753002
72.22834477,63.08983705,60.96290738
72.24967839,63.12296312,60.97888079
72.36685249,63.29845626,61.12028302
72.44671955,63.43771441,61.19929245
72.54331046,63.56239280,61.24678388
72.55467410,63.65973413,61.25964837
72.38186106,63.50085763,61.10977702
72.32118353,63.46826758,61.09262436
72.29695540,63.53366209,61.17109777
72.47148370,63.80360206,61.37242710
72.54030875,63.96462264,61.41852487
72.70154374,64.20583190,61.52079760
72.83394082,64.44457547,61.67763722
72.90469554,64.55671098,61.72566467
72.68803602,64.32289880,61.56410806
72.16391509,63.54899228,61.03076758
71.79877787,62.86545883,60.69757719
71.61170669,62.40973413,60.43524871
71.50085763,62.19682676,60.36535163
71.41938250,61.91852487,60.21826758
71.32879503,61.76533019,60.19221698
71.37307033,61.74421098,60.17581475
71.44607633,61.82193396,60.21580189
71.48745712,61.89976415,60.28248285
71.48767153,61.90469554,60.25375214
71.49989280,61.89569039,60.29213122
71.52433533,61.96773156,60.34701973
71.63936535,62.07461407,60.42495712
71.71140652,62.23456261,60.53966552
71.75814751,62.34626930,60.58361921
71.90555317,62.53205403,60.70358062
71.91691681,62.64461835,60.75053602
71.99238851,62.76876072,60.81786021
72.03580617,62.86256432,60.85784734
72.13207547,63.01479417,60.97641509
72.19929245,63.14183105,61.06421527
72.23724271,63.24667667,61.04448971
72.34659091,63.41198542,61.19586192
72.34112350,63.51222127,61.21676672
72.50032161,63.71623070,61.31442967
72.54073756,63.80874786,61.40566038
72.62242710,63.95518868,61.45561750
72.33447684,63.57311321,61.18138937
71.68610635,62.70240137,60.58962264
71.29180961,61.89772727,60.21912521
70.99088765,61.34058748,59.92056175
70.91370069,61.07986707,59.80799743
70.74163808,60.74935678,59.63357633
70.63304031,60.51297170,59.48895798
70.63604202,60.43728559,59.49946398
70.75482419,60.57772298,59.64611921
70.80424528,60.65201544,59.70325901
70.85355918,60.74035163,59.74185249
70.85988422,60.79020154,59.72716552
70.87510720,60.84401801,59.78998714
70.95347341,60.91209262,59.85034305
71.06314322,61.08865780,59.95936964
71.19018010,61.24099485,60.06946827
71.26854631,61.41691681,60.16648799
71.35709691,61.60345197,60.21858919
71.46044168,61.77047599,60.30971269
71.46397942,61.86685249,60.31282161
71.60870497,62.05896226,60.46569468
71.65705403,62.19950686,60.53441252
71.77036878,62.41552316,60.60741852
71.85302316,62.56893225,60.71537307
71.90941252,62.77776587,60.83587050
72.01125643,62.94714837,60.95358062
72.11374357,63.07879503,61.00418096
72.22169811,63.23542024,61.11042024
72.23713551,63.34669811,61.13786449
72.35806175,63.55553173,61.24378216
72.41241424,63.70894082,61.34123070
72.49367496,63.86052744,61.31914666
72.27862350,63.60666810,61.19822041
71.67549314,62.76811750,60.65147942
71.20851201,61.93278302,60.23102487
70.98831475,61.46665952,59.96022727
70.91016295,61.21826758,59.88850772
70.73359777,60.90791166,59.73252573
70.61417238,60.70829760,59.62746569
70.64418954,60.61567324,59.62189108
70.71333619,60.72062607,59.64858491
70.86277873,60.89965695,59.82054031
70.84487564,60.95658233,59.78269726
70.89376072,60.97995283,59.82665094
70.90898370,61.01082762,59.85581046
71.00075043,61.16069897,59.95443825
71.10237993,61.30156518,60.06721698
71.20143654,61.50632504,60.15662521
71.29448971,61.70379503,60.25911235
71.36620926,61.82997427,60.33018868
71.47630789,61.99045883,60.45422384
71.50686106,62.09476844,60.41445111
71.66262864,62.26554460,60.55456690
71.69082333,62.38207547,60.60077187
71.80328045,62.57922384,60.68599914
71.93878645,62.78441252,60.80478130
71.93964408,62.85666810,60.87896655
72.04277444,63.04963551,61.01404374
72.08286878,63.18278302,61.05928388
72.19854202,63.35613208,61.13314751
72.27647942,63.53205403,61.21816038
72.37478559,63.72534305,61.31818182
72.38550600,63.78023156,61.31603774
71.97995283,63.25117925,60.93299743
71.43138937,62.40737564,60.49485420
71.09787736,61.78162521,60.14204545
70.97791595,61.44811321,59.97019726
70.89879931,61.23070326,59.87864494
70.83093911,61.02905232,59.81850343
70.81507290,60.93428388,59.74560463
70.86095626,60.96258576,59.81442967
70.98681389,61.11717410,59.88239708
70.96633791,61.15437393,59.94103774
70.97834477,61.16466552,59.95111492
70.95218696,61.17817324,59.93782161
71.01072041,61.19832762,59.98220412
71.11524443,61.32986707,60.04856346
71.20936964,61.43900086,60.13625643
71.29213122,61.65105060,60.22759434
71.35248714,61.77572899,60.30874786
71.44457547,61.93342624,60.39590480
71.53409091,62.09391081,60.45090051
71.60924099,62.23509863,60.56507290
71.65544597,62.34048027,60.54331046
71.72888079,62.46923242,60.66477273
71.85066467,62.65276587,60.82214837
71.94146655,62.79309605,60.91680961
72.07054031,63.00557461,61.03023156
72.11599485,63.15008576,61.07418525
72.00042882,63.03023156,60.96590909
71.54909949,62.28687822,60.52079760
71.03259005,61.45261578,60.04138079
70.83844340,60.94050172,59.83587050
70.70872642,60.67056175,59.64225986
70.67259863,60.50600343,59.56110635
70.61813894,60.30853345,59.50407376
70.58394082,60.24667667,59.52540738
70.69897084,60.38421955,59.63443396
70.78795026,60.48627787,59.72298456
70.81743139,60.54470412,59.72973842
70.80499571,60.54556175,59.72394940
70.84927101,60.60613208,59.77637221
70.93953688,60.70797599,59.84605489
71.06485849,60.87810892,59.95808319
71.07922384,61.08415523,59.96901801
71.22973842,61.22330617,60.12510720
71.38046741,61.43792882,60.29684820
71.41434391,61.54084477,60.29792024
71.49399657,61.69596913,60.38936535
71.55360206,61.81432247,60.44082333
71.65726844,61.99153087,60.55392367
71.75900515,62.16037736,60.65137221
71.85280875,62.28634220,60.73767153
71.92281304,62.47384220,60.82075472
72.05928388,62.62725129,60.92463551
72.13261149,62.81421527,61.00032161
72.15083619,62.92056175,61.04641938
71.89772727,62.50214408,60.78945111
71.23692110,61.51307890,60.19425386
70.82665094,60.71301458,59.75568182
70.63657804,60.23777873,59.60205832
70.51007719,59.95497427,59.41659520
70.38893654,59.70111492,59.32804460
70.27562178,59.45894082,59.20786878
70.29781304,59.45411664,59.27079760
70.42495712,59.59669811,59.33576329
70.59165952,59.80006432,59.46708834
70.58501286,59.81507290,59.47352058
70.59466123,59.84830617,59.41627358
70.67860206,59.95990566,59.60184391
70.73938679,60.05499571,59.66241424
70.87510720,60.26790309,59.75482419
70.99003002,60.44929245,59.86374357
71.16852487,60.65994854,59.98456261
71.20100772,60.78098199,60.04984991
71.29984991,60.98466981,60.14075901
71.43471269,61.14183105,60.24324614
71.51222127,61.24785592,60.32054031
71.64954974,61.44650515,60.44521870
71.71730274,61.57943825,60.52176244
71.86706690,61.79888508,60.66380789
71.98166810,61.96580189,60.76683105
72.10291595,62.18138937,60.85677530
72.19843482,62.34187393,60.95979846
72.32043310,62.52690823,61.02304889
72.40737564,62.70325901,61.12328473
72.45379503,62.84766295,61.16798885
72.63754288,63.09616209,61.38818611
72.67463551,63.20122213,61.40984134
72.41027015,62.86760292,61.14247427
71.78923671,61.80574614,60.51908233
71.28173242,60.93932247,60.10548885
71.08951544,60.45808319,59.91177101
70.99249571,60.23456261,59.75493139
70.86331475,59.97587907,59.64376072
70.73852916,59.69736278,59.56764580
70.75268010,59.70358062,59.54213122
70.85559605,59.82107633,59.61953259
71.01822470,60.06196398,59.81410806
71.07750858,60.16584477,59.78141081
71.08265437,60.18707118,59.83672813
71.18171098,60.26618782,59.95315180
71.22877358,60.43096055,59.99120926
71.41466552,60.58833619,60.11792453
71.51961835,60.75525300,60.18792882
71.66841767,61.03248285,60.39869211
71.77347770,61.20808319,60.46065609
71.89515437,61.39944254,60.57032590
71.99989280,61.56786021,60.64847770
72.10452401,61.71001286,60.74839194
72.21172813,61.88218268,60.82815180
72.33715695,62.07386364,60.90641081
72.52454974,62.34744854,61.10731132
72.62735849,62.51543739,61.20325901
72.72137650,62.67978130,61.27562178
72.85398799,62.94403945,61.43503431
72.93460549,63.05060034,61.53366209
73.08801458,63.30799743,61.65919811
73.21194254,63.50396655,61.72909520
73.16348628,63.51704545,61.76104202
72.69296741,62.78430532,61.26693825
72.06925386,61.78473413,60.70690395
71.76447256,61.23638508,60.39461835
71.66166381,60.92324185,60.21912521
71.62467839,60.81464408,60.22609348
71.54674099,60.64815609,60.11878216
71.57450686,60.63304031,60.18728559
71.74260292,60.82364923,60.36352916
71.82407804,60.96623070,60.44135935
71.94403945,61.10034305,60.49549743
71.92484991,61.09423242,60.46451544
71.95668954,61.14429674,60.49206690
72.07407804,61.30799743,60.63904374
72.19639794,61.48692110,60.72555746
72.35195111,61.72587907,60.88089623
72.48992281,61.94425386,61.00578902
72.66423671,62.18524871,61.10870497
72.68364065,62.29148799,61.12424957
72.84905660,62.51672384,61.29867067
72.93138937,62.61084906,61.33983705
73.05295883,62.80960549,61.51200686
73.13346913,62.95186535,61.53334048
73.28891509,63.18449828,61.66884648
73.43782161,63.39622642,61.78816467
73.52680103,63.56067753,61.88957976
73.53484134,63.58286878,61.89611921
72.99324614,62.87403516,61.36138508
72.47791595,61.96397942,60.88100343
72.13411235,61.40319468,60.61803173
72.02358491,61.14644082,60.50750429
72.03741424,61.08758576,60.53119640
72.01479417,61.00343053,60.50407376
72.05038593,61.01865352,60.53344768
72.16219983,61.14590480,60.58608491
72.31314322,61.36224271,60.74410377
72.32182676,61.41059177,60.76693825
72.37264151,61.48306175,60.81410806
72.41670240,61.53634220,60.81099914
72.52444254,61.69854202,60.88186106
72.69221698,61.91756003,61.03912950
72.79438250,62.10806175,61.17688679
72.93696398,62.36256432,61.31925386
73.05124357,62.51865352,61.40437393
73.16906089,62.70100772,61.51275729
73.24056604,62.82246998,61.57246998
73.33136792,63.00182247,61.57407804
73.46515866,63.22716552,61.77798027
73.58855060,63.38228988,61.85012864
73.68053173,63.57761578,61.94961407
73.81271441,63.71387221,62.07064751
73.90962693,63.93128216,62.19671955
73.61899657,63.55874786,61.85012864
73.05167238,62.65244425,61.36063465
72.47073328,61.70250858,60.84787736
72.23134648,61.20797599,60.63121784
72.14676244,61.03527015,60.48509863
72.03773585,60.85077187,60.43996569
71.97234134,60.68610635,60.34948542
71.93803602,60.64794168,60.37628645
72.10806175,60.86749571,60.53709262
72.25107204,61.07911664,60.66037736
72.33769297,61.20990566,60.67302744
72.38314751,61.28430532,60.69446827
72.40362350,61.32386364,60.72759434
72.55102916,61.50450257,60.86213551
72.66970412,61.72030446,60.97287736
72.86009863,61.97866638,61.14161664
73.02701544,62.20776158,61.25750429
73.06925386,62.39215266,61.32868782
73.21044168,62.60216552,61.51897513
73.27615780,62.71590909,61.53173242
73.42742281,62.93921527,61.64397513
73.47770154,63.05317324,61.69339623
73.61352916,63.24774871,61.79448971
73.73734991,63.43803602,61.97705832
73.80574614,63.58254717,61.97534305
73.91788165,63.77337050,62.11899657
73.99924957,63.90212264,62.14933533
74.12703688,64.14268868,62.29556175
74.16102058,64.32204117,62.34862779
74.07386364,64.21065609,62.31507290
73.51168525,63.29920669,61.75482419
72.78752144,62.18439108,61.05017153
72.40673242,61.55145798,60.73970840
72.24656947,61.21826758,60.58147513
72.16498714,61.02090480,60.48466981
71.99067324,60.75503859,60.33436964
71.95422384,60.70679674,60.36245712
72.10763293,60.86042024,60.50578902
72.23938679,61.05928388,60.59959262
72.37403516,61.23874357,60.73638508
72.39762007,61.29620497,60.74581904
72.45711835,61.40480274,60.82568611
72.50407376,61.50450257,60.77315609
72.66284305,61.73852916,60.96001286
72.76447256,61.94007290,61.07836621
72.93278302,62.17742281,61.23552744
73.10366638,62.39118782,61.36395798
73.14140223,62.50889794,61.37660806
73.25214408,62.73048885,61.48520583
73.32890223,62.85613208,61.54909949
73.47448542,63.09069468,61.71569468
73.53141081,63.21044168,61.75096484
73.68439108,63.44639794,61.90694683
73.78559177,63.63207547,62.01265009
73.89065180,63.78494854,62.07761578
74.02787307,63.97234134,62.19339623
74.06550172,64.10966981,62.20915523
74.16884648,64.34873499,62.37510720
74.22319897,64.51736707,62.46183533
74.29727702,64.73767153,62.54363208
74.07418525,64.36363636,62.26822470
73.40019297,63.31850343,61.66648799
72.77915952,62.31989708,61.13314751
72.53141081,61.80263722,60.87660806
72.45518868,61.63314751,60.80317324
72.38775729,61.50439537,60.73381218
72.32600772,61.41134220,60.69864923
72.34680532,61.42892367,60.73574185
72.53366209,61.63550600,60.84262436
72.65137221,61.81432247,61.02701544
72.69157376,61.86824614,61.00246569
72.72641509,61.92538593,61.04502573
72.74388937,61.98295455,61.05542453
72.87114065,62.17259863,61.18481990
72.95894082,62.33651372,61.26232847
73.13754288,62.55692539,61.43021012
73.25879074,62.78580617,61.49378216
73.32107633,62.94929245,61.62210549
73.46194254,63.15598199,61.75332333
73.53216123,63.30274443,61.76543739
73.64461835,63.46408662,61.91069897
73.69832762,63.57825901,61.94382504
73.82622213,63.77883791,62.08051029
73.86224271,63.86738851,62.04448971
74.00900515,64.14236707,62.27980274
74.13689966,64.37274871,62.39461835
74.10956261,64.39386792,62.36299314
73.63239708,63.74024443,61.95315180
72.93803602,62.63614923,61.27808748
72.48734991,61.88743568,60.85527444
72.31721698,61.54856346,60.70036449
72.31250000,61.50160806,60.70486707
72.24056604,61.38979417,60.63593482
72.26533019,61.41219983,60.66584477
72.44318182,61.62950257,60.83576329
72.53087479,61.74785592,60.83812178
72.61738851,61.88518439,61.01168525
72.60741852,61.88400515,60.92388508
72.65115780,61.95540309,60.97898799
72.73038165,62.09101630,61.06743139
72.86631647,62.26554460,61.18878645
73.02830189,62.53923671,61.33297599
73.13111063,62.72223413,61.44071612
73.26104202,62.92484991,61.55521012
73.36760292,63.11181389,61.64225986
73.49410377,63.28591338,61.73702830
73.56314322,63.44414666,61.81850343
73.63432676,63.58179674,61.88003859
73.72909520,63.75353774,61.97652230
73.79320326,63.90962693,62.01490137
73.91563036,64.13068182,62.20872642
74.00536021,64.26093482,62.24142367
73.75085763,63.95240137,62.03623499
73.08672813,62.93514151,61.48081046
72.37960978,61.83565609,60.74581904
72.05885506,61.24517581,60.51618782
71.92388508,60.96548027,60.34626930
71.82911664,60.77594340,60.25235849
71.71451544,60.55778302,60.16498714
71.69554031,60.54909949,60.17881647
71.83458405,60.74581904,60.28398370
71.94328902,60.96558748,60.41948971
72.02069039,61.06507290,60.46537307
72.02369211,61.08801458,60.46430103
72.08972985,61.15062178,60.49581904
72.17227702,61.25846913,60.55585334
72.30006432,61.46580189,60.70551029
72.39022298,61.62092624,60.75986278
72.58629931,61.88304031,60.96129931
72.64933533,62.07965266,61.03569897
72.67935249,62.16820326,61.05606775
72.81174957,62.35698971,61.18632075
72.85784734,62.44618353,61.22041166
72.99120926,62.64922813,61.36942539
73.03870069,62.77990995,61.42592196
73.16520154,62.98145369,61.51790309
73.25964837,63.17452830,61.62285592
73.37617925,63.33415523,61.75460978
73.43492710,63.50010720,61.82364923
73.45218696,63.59777015,61.82611492
73.57772298,63.83715695,61.95015009
73.68460549,63.98949400,62.05488851
73.61953259,63.90105060,61.94607633
72.84519726,62.85784734,61.29674099
72.08008148,61.60688250,60.58694254
71.57332762,60.79159520,60.13036021
71.37135506,60.39322470,59.93782161
71.25278731,60.18246141,59.84391081
71.03494854,59.83490566,59.60613208
70.94489708,59.68825043,59.58919383
70.99078045,59.76179245,59.65137221
71.20668954,59.99785592,59.82397084
71.26382933,60.14611921,59.83994425
71.29416810,60.18503431,59.92753002
71.33994425,60.23767153,59.94843482
71.38357633,60.32825901,59.95561750
71.50964837,60.51350772,60.09819897
71.61031304,60.66284305,60.18342624
71.77101201,60.92259863,60.38078902
71.89686964,61.12971698,60.42817324
71.97041166,61.26715266,60.45754717
72.07525729,61.48134648,60.58040309
72.11846055,61.59208834,60.63818611
72.26961835,61.82150515,60.78762864
72.33136792,61.96494425,60.84187393
72.47330617,62.20722556,60.97201973
72.57836621,62.36567324,61.04277444
72.69178816,62.57279160,61.17892367
72.79888508,62.74871355,61.26801029
72.85548885,62.89408233,61.32161235
72.98445540,63.08780017,61.45722556
73.03076758,63.27069039,61.52712264
73.11974700,63.47759434,61.63689966
73.18642796,63.62832333,61.69243139
73.31625214,63.87585763,61.84476844
73.16820326,63.73295455,61.71708834
72.43074614,62.72319897,61.04652659
71.74442539,61.50771870,60.43246141
71.30617496,60.71826758,59.94275300
71.17409949,60.45132933,59.86020583
71.11192110,60.26629503,59.75364494
71.02615780,60.09219554,59.73456261
70.98456261,59.99957118,59.65094340
71.06453688,60.11963979,59.74614065
71.20132933,60.30660377,59.90308748
71.23252573,60.37103345,59.95829760
71.29942110,60.46494425,59.98402659
71.29856346,60.49882075,59.94564751
71.40265866,60.64172384,60.10506003
71.47566467,60.78462693,60.16927530
71.68160377,61.03644940,60.32654374
71.78430532,61.24506861,60.47877358
71.84616209,61.38196827,60.45915523
71.94554031,61.62414237,60.57289880
72.03001715,61.72963122,60.62071184
72.14837050,61.92452830,60.75750429
72.24581904,62.09444683,60.84123070
72.32472127,62.27412093,60.89569039
72.42527873,62.43835763,61.04770583
72.53934391,62.63196827,61.17120497
72.62939537,62.81593053,61.24388937
72.66252144,62.93246141,61.28945111
72.80338765,63.22255575,61.49699828
72.88539880,63.36653087,61.60602487
72.97319897,63.52079760,61.64000858
72.54716981,62.97620069,61.16359348
71.82686535,61.87210549,60.56442967
71.29566895,60.98327616,60.03301887
71.09841338,60.57011149,59.86535163
71.07021870,60.47094768,59.89526158
70.98724271,60.29363208,59.73960120
70.97491424,60.21719554,59.76393654
71.02315609,60.28752144,59.77873070
71.18224700,60.51222127,59.94897084
71.18428388,60.58565609,59.89847770
71.19800600,60.58822899,59.95572470
71.21376501,60.61921098,60.00278731
71.27862350,60.69714837,60.04899228
71.39504717,60.83158233,60.13346913
71.52969554,61.06528731,60.25804031
71.69918525,61.29481132,60.42710120
71.74517581,61.44779160,60.45508148
71.87692967,61.64751286,60.60441681
71.97491424,61.81303602,60.68010292
72.02369211,61.92592196,60.73188250
72.17999571,62.10259434,60.85495283
72.23241852,62.22405660,60.94146655
72.33008148,62.41048456,61.07772298
72.39290309,62.58672813,61.08479846
72.54427530,62.83758576,61.27219125
72.63882933,62.96537307,61.31228559
72.33587050,62.61738851,61.05199400
71.66295026,61.59819897,60.44446827
71.02240566,60.60709691,59.86760292
70.76693825,60.05274443,59.65094340
70.69457547,59.85731132,59.49324614
70.60055746,59.64965695,59.48027444
70.53784305,59.53484134,59.40641081
70.60881218,59.57943825,59.42227702
70.77251286,59.81560892,59.59369640
70.82193396,59.89268868,59.62660806
70.83919383,59.96204974,59.67367067
70.83844340,59.95229417,59.64611921
70.89086621,60.01500858,59.72341338
70.99774871,60.17892367,59.76725986
71.09133791,60.36513722,59.85849057
71.26457976,60.57654374,59.99078045
71.29641938,60.69243139,60.06957547
71.44210978,60.92216981,60.19382504
71.50482419,61.03741424,60.23359777
71.64333190,61.24303173,60.36074185
71.67120497,61.32922384,60.41262864
71.80253002,61.51093482,60.54202401
71.85506003,61.63143225,60.61942539
71.96515866,61.81678816,60.68728559
72.07986707,61.98960120,60.79792024
72.12993139,62.13121784,60.84005146
72.28226844,62.36138508,60.98274014
72.31646655,62.43160377,60.98820755
71.84294597,61.80949828,60.60109348
71.01533019,60.60731132,59.82707976
70.49431818,59.71215695,59.36352916
70.24710549,59.25696827,59.13153945
70.15030017,59.01629503,59.06132075
70.04942110,58.80113636,58.94650515
69.87639365,58.51297170,58.79684820
69.91831046,58.54245283,58.86985420
70.11224271,58.77583619,59.06593053
70.22030446,58.94328902,59.16584477
70.26136364,58.98777873,59.18096055
70.29288165,59.07118353,59.18653516
70.33597770,59.15651801,59.23434820
70.44596913,59.29438250,59.34048027
70.58501286,59.48295455,59.51768868
70.65030017,59.62071184,59.51886792
70.85891938,59.91788165,59.74935678
70.91209262,60.04781304,59.75343053
71.01629503,60.22727273,59.87135506
71.08737136,60.34466123,59.89333190
71.16134220,60.51490137,60.05456690
71.28334048,60.68578473,60.11846055
71.39118782,60.85516724,60.17999571
71.52658662,61.07311321,60.36020583
71.56796741,61.20776158,60.35591767
71.71258576,61.43042453,60.44586192
71.84037307,61.60323756,60.60473842
71.97855918,61.80445969,60.69918525
72.01672384,61.92838765,60.75171527
72.13475557,62.13732847,60.87746569
72.26650943,62.35956261,60.99785592
72.24099485,62.35977702,60.99506861
71.69168096,61.59348199,60.48156089
70.84948542,60.35012864,59.75450257
70.34326758,59.45733276,59.29116638
70.14440395,59.05499571,59.01554460
70.04974271,58.85162950,58.96548027
69.93492710,58.63496998,58.80306604
69.83018868,58.46462264,58.78044597
69.88014580,58.50771870,58.81989708
70.09165952,58.76082762,59.03119640
70.25000000,58.95583190,59.17216981
70.29652659,59.02379931,59.18331904
70.29824185,59.04331046,59.18610635
70.38346913,59.15598199,59.28141081
70.47555746,59.32418525,59.40180103
70.64279588,59.54652659,59.48477702
70.75439537,59.72652230,59.54899228
70.86588765,59.97073328,59.70036449
71.00600343,60.16487993,59.86213551
71.08565609,60.29320326,59.88925815
71.21944683,60.51533019,60.02069039
71.27830189,60.62178388,60.07740137
71.41455832,60.81978988,60.21730274
71.50075043,61.01254288,60.27219125
71.65555317,61.19629074,60.41691681
71.74989280,61.38947256,60.49474700
71.83415523,61.51254288,60.54191681
71.97920240,61.75557461,60.73048885
72.08340480,61.93503431,60.81625214
72.23006003,62.15930532,60.95475986
71.99163808,61.85248714,60.70776158
71.28312607,60.87918096,60.10752573
70.62928816,59.84198113,59.51307890
70.30285163,59.26425815,59.21966123
70.25653945,59.09058748,59.10495283
70.20604631,58.95840480,59.15930532
70.18524871,58.90780446,59.13271870
70.26457976,58.96740995,59.15994854
70.43878645,59.13025300,59.29856346
70.57783019,59.36899657,59.42324185
70.57461407,59.41766724,59.42088336
70.59262436,59.43846484,59.45411664
70.59155232,59.47469983,59.42388508
70.73006003,59.63057461,59.60205832
70.93192539,59.88689966,59.76125643
71.01768868,60.07858062,59.81014151
71.20926244,60.33619211,59.97898799
71.31014151,60.47716552,60.03698542
71.38078902,60.66552316,60.11792453
71.48252573,60.77369211,60.18492710
71.56035592,60.92699400,60.28226844
71.65951973,61.05467410,60.35913379
71.74517581,61.23424099,60.46280017
71.86192110,61.44189537,60.53194683
71.96548027,61.60184391,60.60270154
72.04792024,61.74753431,60.71580189
71.72491424,61.35055746,60.38443396
71.03527015,60.33951544,59.79470412
70.39665523,59.32439966,59.28537736
70.17795883,58.87349914,59.07139794
70.13143225,58.70733276,58.98241852
70.02958834,58.54931389,58.87285592
69.97287736,58.47094768,58.86567324
70.08790738,58.55596055,58.96376501
70.26393654,58.80231561,59.15158662
70.37039022,58.96194254,59.20894082
70.37489280,59.00589623,59.24646226
70.37210549,59.01275729,59.25611063
70.41916810,59.10698971,59.27186964
70.58683533,59.32439966,59.42903087
70.69457547,59.48102487,59.51318611
70.84766295,59.74003002,59.63261149
70.95947684,59.91037736,59.73370497
71.07086192,60.08930103,59.85559605
71.19800600,60.26275729,59.89161664
71.27637221,60.36985420,59.98220412
71.34015866,60.50075043,60.06057033
71.39762007,60.61331475,60.12596484
71.50568182,60.78848628,60.26940395
71.57214837,60.95336621,60.26018439
71.70894082,61.18771441,60.35816895
71.53076758,60.97201973,60.22416381
70.87103345,59.95701115,59.62339194
70.21183533,58.90030017,59.05681818
69.81099914,58.24753431,58.71001286
69.65490995,57.93685678,58.55713979
69.51179245,57.71805317,58.43396226
69.37307033,57.52658662,58.32547170
69.37682247,57.49174528,58.29020154
69.55263722,57.70293739,58.52454974
69.75879074,57.96891081,58.70218696
69.80563894,58.13196827,58.66798885
69.87596484,58.23895798,58.76318611
69.90265866,58.28837907,58.78687822
70.02626501,58.47137650,58.95186535
70.17506432,58.69972127,59.08029588
70.34648370,58.90780446,59.19275300
70.47909520,59.15726844,59.28719983
70.58822899,59.34680532,59.42527873
70.74967839,59.57943825,59.55070755
70.83737136,59.74839194,59.62467839
70.99656947,60.01307890,59.72405660
71.08812178,60.18374786,59.83833619
71.22437822,60.39997856,59.98424099
71.30381647,60.57954545,60.01029160
71.44929245,60.81614494,60.13475557
71.57150515,61.06142796,60.24110206
71.72437822,61.29406089,60.36074185
71.84723413,61.51425815,60.47695111
71.52315609,61.16916810,60.20518868
70.91959691,60.27830189,59.72405660
70.45475986,59.55167238,59.29888508
70.27905232,59.24967839,59.07986707
70.20797599,59.05810463,59.00921955
70.12092624,58.91895369,58.93782161
70.05810463,58.82118353,58.94361063
70.14054460,58.92013293,58.99024443
70.39461835,59.26747427,59.18857204
70.48027444,59.49742710,59.28623499
70.62124786,59.71537307,59.38454117
70.69168096,59.86149228,59.45776158
70.80896226,60.02894511,59.62478559
70.92560034,60.27401372,59.72384220
71.02262007,60.45743997,59.83093911
71.24313894,60.75021441,59.97298456
71.31260720,60.96269297,60.06753859
71.49271012,61.26822470,60.20261578
71.59734134,61.48842196,60.37885935
71.75160806,61.72094768,60.47888079
71.85623928,62.00911235,60.61867496
72.02294168,62.28194683,60.72491424
72.13111063,62.52433533,60.85087907
72.23542024,62.73627787,60.94704117
72.37939537,63.00782590,61.14161664
72.48177530,63.25814751,61.24699828
72.60913379,63.54459691,61.45754717
72.72534305,63.77937393,61.50107204
72.84755575,64.01157804,61.63036021
72.98574185,64.38454117,61.76468696
72.96355060,64.45261578,61.75793310
72.73424099,64.15555317,61.62017581
72.23767153,63.54256003,61.23059605
72.08361921,63.19275300,60.96740995
72.02283448,63.04663379,60.94822041
71.99378216,62.99056604,60.92581475
71.94575472,62.90415952,60.81217839
71.92141938,62.84380360,60.77926672
72.04867067,62.99871355,60.94832762
72.18289022,63.18632075,61.09584048
72.20411664,63.30274443,61.11406518
72.21569468,63.36042024,61.13443396
72.29266724,63.45240137,61.21976844
72.31925386,63.55703259,61.23756432
72.43975129,63.72405660,61.36084906
72.51243568,63.90244425,61.39322470
72.58276158,64.06496569,61.50771870
72.67742281,64.26575901,61.59015866
72.71033448,64.38250429,61.63186106
72.83351201,64.55906947,61.75589623
72.92227702,64.72930961,61.86631647
73.00493139,64.92088336,61.92324185
73.11288593,65.08865780,62.01340051
73.15876930,65.21558748,62.08286878
73.28173242,65.42538593,62.19253859
73.34487564,65.60045026,62.27176244
73.48027444,65.82311321,62.39493997
73.55328045,65.99624786,62.38968696
73.55328045,66.08972985,62.45165094
73.23520583,65.65651801,62.15909091
72.93878645,65.13968696,61.95100772
72.79834906,64.84444683,61.75782590
72.71226415,64.70561750,61.72405660
72.69264580,64.58844340,61.71129931
72.61856775,64.48327616,61.60913379
72.63379074,64.47727273,61.60956261
72.67763722,64.51640223,61.66134220
72.81367925,64.66037736,61.74463979
72.83136792,64.68535592,61.80542453
72.85270154,64.66766724,61.81668096
72.86385077,64.67345626,61.82611492
72.88121784,64.73241852,61.83876501
72.96087050,64.84037307,61.89440395
73.00375214,64.90769726,61.90662521
73.14794168,65.10012864,62.11106346
73.15523156,65.15180103,61.98584906
73.24206690,65.28795026,62.14129503
73.29191681,65.35795455,62.18771441
73.36599485,65.48627787,62.26650943
73.43203259,65.60698971,62.31839623
73.55403087,65.76608062,62.37757290
73.61556604,65.87585763,62.45926244
73.68063894,65.99860635,62.51747427
73.79159520,66.19746998,62.61963979
73.80831904,66.29867067,62.64622642
73.80027873,66.29920669,62.64954974
73.43160377,65.73134648,62.31003431
73.10506003,65.15072899,61.98777873
72.94554031,64.77358491,61.80231561
72.88614923,64.56346484,61.76565180
72.83790738,64.35205832,61.69125214
72.73606346,64.07439966,61.55531732
72.73445540,63.97845197,61.53977273
72.75814751,63.94210978,61.49571184
72.83629931,63.99346055,61.56657376
72.82139794,63.94897084,61.58319039
72.77873070,63.91873928,61.56946827
72.76865352,63.85634648,61.54438250
72.79609777,63.86470840,61.56968268
72.84391081,63.90115780,61.58833619
72.91252144,63.96869640,61.64236707
73.01436535,64.07825901,61.70990566
73.02465695,64.10849057,61.74142367
73.09230274,64.22159091,61.83008148
73.13100343,64.29481132,61.87607204
73.19607633,64.36867496,61.92249142
73.26447256,64.46044168,62.01533019
73.34605489,64.55896226,61.99635506
73.39386792,64.68889365,62.07118353
73.43653516,64.80960549,62.10120069
73.56250000,64.96601630,62.19050172
73.59980703,65.06207118,62.19457547
73.71966123,65.19543310,62.34787736
73.74646226,65.27240566,62.37832333
73.85495283,65.49517581,62.55692539
73.95272298,65.60345197,62.56721698
73.83104631,65.47791595,62.46119211
73.40823328,64.76050600,62.03687822
73.01650943,64.10205832,61.69575472
72.86224271,63.70186535,61.56250000
72.76747427,63.46451544,61.38732847
72.70797599,63.24485420,61.34155232
72.57783019,62.92045455,61.17581475
72.55896226,62.74592624,61.07032590
72.58126072,62.74271012,61.10077187
72.62682247,62.78441252,61.14054460
72.64129503,62.78837907,61.15222985
72.60291595,62.71783877,61.14558319
72.67184820,62.74238851,61.14697684
72.65426672,62.73552744,61.13861492
72.71097770,62.84819897,61.23220412
72.79759863,62.93224700,61.27530017
72.90587479,63.07975986,61.40008576
72.98874357,63.19007290,61.42484991
73.06410806,63.33126072,61.56668096
73.14097341,63.46430103,61.61738851
73.11578045,63.52208405,61.61578045
73.26693825,63.67924528,61.75128645
73.31239280,63.79845626,61.81968268
73.38711407,63.98531304,61.89890652
73.48509863,64.11631647,61.98424099
73.57890223,64.32311321,62.11020583
73.68299743,64.43964408,62.17206261
73.76082762,64.59037307,62.26189966
73.89075901,64.82922384,62.38775729
73.88925815,64.92549314,62.38153945
74.03301887,65.11620926,62.52637221
74.11996141,65.25653945,62.62682247
74.20347341,65.44339623,62.69103774
73.94629074,65.12489280,62.45808319
73.44886364,64.35430961,61.98274014
73.12971698,63.77873070,61.66102058
73.01811750,63.44393225,61.55113636
73.02262007,63.27090480,61.45486707
72.91423671,63.05167238,61.35334477
72.84830617,62.88818611,61.30606775
72.85034305,62.79138079,61.24871355
72.96183533,62.90823328,61.32204117
72.99882075,62.94993568,61.41219983
73.03784305,62.97759434,61.42356346
73.03548456,63.00718268,61.41155660
73.06753859,63.02958834,61.46012007
73.15544597,63.09412521,61.55145798
73.18867925,63.20475986,61.55467410
73.31410806,63.39536878,61.66659520
73.42903087,63.54309605,61.81732419
73.46129931,63.66348628,61.87682247
73.56282161,63.84969983,61.98670669
73.64011578,63.96794597,61.98295455
73.75921955,64.14172384,62.13121784
73.78923671,64.25107204,62.15780446
73.91359348,64.47577187,62.29545455
73.97566467,64.59873499,62.38046741
74.09841338,64.79545455,62.50171527
74.13614923,64.90051458,62.49699828
74.25632504,65.05542453,62.63218268
74.38132504,65.32729417,62.81635935
74.31775300,65.30167238,62.70540309
73.93342624,64.77111921,62.33565609
73.46365780,63.93900086,61.88840051
73.25825472,63.49539022,61.68342624
73.18149657,63.24967839,61.57493568
73.16916810,63.10613208,61.52379931
73.10420240,62.96440823,61.43460549
73.07547170,62.90501715,61.42174099
73.18867925,62.98198971,61.50879074
73.21998285,63.05360206,61.52873070
73.26908233,63.12092624,61.55874786
73.28419811,63.11910377,61.60709691
73.27862350,63.08801458,61.55821184
73.36213551,63.16380789,61.64644082
73.47373499,63.30885506,61.72587907
73.60077187,63.51415094,61.86685249
73.66563036,63.62853774,61.93599914
73.78001715,63.82139794,62.07204117
73.84959262,63.96837479,62.05135077
73.88003859,64.09830617,62.15876930
74.01082762,64.28355489,62.26747427
74.02808748,64.40008576,62.31132075
74.12682247,64.54556175,62.37253431
74.19596913,64.70025729,62.50235849
74.33747856,64.92409949,62.62735849
74.35559605,65.01811750,62.64247427
74.10452401,64.66284305,62.37832333
73.58447684,63.84348199,61.92152659
73.15576758,63.06828902,61.48488422
73.02422813,62.70261578,61.31925386
72.93010292,62.47084048,61.21355060
72.86921098,62.34348199,61.17645798
72.83394082,62.17077616,61.06786021
72.83243997,62.15898370,61.10859777
72.99410377,62.31271441,61.22566467
73.00728988,62.38379074,61.27186964
73.05413808,62.44843482,61.29942110
73.06035592,62.45122213,61.28398370
73.11856775,62.55596055,61.34841338
73.18792882,62.66177101,61.37146226
73.30424528,62.84734134,61.47641509
73.41702401,63.06582333,61.57654374
73.50310892,63.19457547,61.68514151
73.64236707,63.42045455,61.79738422
73.68985849,63.49067324,61.85002144
73.81818182,63.69468268,61.95926244
73.83619211,63.77830189,61.98627787
73.88936535,63.94361063,62.11470840
74.00996998,64.16391509,62.22394940
74.08029588,64.29770583,62.29491852
74.21140652,64.48434820,62.39129503
74.25975557,64.59316038,62.43278302
74.38314751,64.85741852,62.57332762
74.36417238,64.90340909,62.59466123
74.00353774,64.46129931,62.23810034
73.37221269,63.36663808,61.71719554
72.89590480,62.53505575,61.18707118
72.75707547,62.13765009,61.00214408
72.58672813,61.86524443,60.85666810
72.52122642,61.71933962,60.78087479
72.40383791,61.48638508,60.64247427
72.43900086,61.51382933,60.75782590
72.56593053,61.66584477,60.85623928
72.64322470,61.78173242,60.93653516
72.68439108,61.88357633,60.95711835
72.68578473,61.92442110,60.98059605
72.75418096,61.98295455,60.98081046
72.85870497,62.14451115,61.12714408
72.97180532,62.33780017,61.19093053
73.10891938,62.51050600,61.36427959
73.19039451,62.68353345,61.38507719
73.32836621,62.91756003,61.53955832
73.34852058,63.04813465,61.54513293
73.50353774,63.23702830,61.68321184
73.55596055,63.33983705,61.72855918
73.68814322,63.53527015,61.90105060
73.72620069,63.68696398,61.94682676
73.88314751,63.89043739,62.06968268
73.95336621,64.05092196,62.17463551
74.01843911,64.24185249,62.29373928
74.10077187,64.42817324,62.30102916
74.14365352,64.59112350,62.39108062
74.31024871,64.84176672,62.58919383
74.37253431,64.95936964,62.61588765
74.08394082,64.62382075,62.28591338
73.42570755,63.50761149,61.70701115
72.84369640,62.59133791,61.23070326
72.64611921,62.14762007,60.99281732
72.57418525,61.91230703,60.88336192
72.54684820,61.87296312,60.84616209
72.46183533,61.67667238,60.77744425
72.48542024,61.69468268,60.81346484
72.56786021,61.78334048,60.87789451
72.70175815,61.96440823,60.99506861
72.70111492,61.99549743,61.04009434
72.67838765,62.00214408,60.97362779
72.75546741,62.10495283,61.03162521
72.76168525,62.16991852,61.03398370
72.92913808,62.39247427,61.22888079
73.02176244,62.54684820,61.31057033
73.15319468,62.77433533,61.38132504
73.26061321,62.96022727,61.50954117
73.35355918,63.13228988,61.61020583
73.40662521,63.34144511,61.67184820
73.49560463,63.44243139,61.72609348
73.61749571,63.65480274,61.88722127
73.64794168,63.75836192,61.89386792
73.77069039,63.95100772,62.04942110
73.86320755,64.10956261,62.16187822
74.00000000,64.30338765,62.25964837
74.08265437,64.54856346,62.34723413
74.02701544,64.56325043,62.29974271
73.51940395,63.82493568,61.81121355
72.77551458,62.67903087,61.11599485
72.32161235,61.91981132,60.66252144
72.14944254,61.58726415,60.55188679
72.15501715,61.48198971,60.56882504
72.12146226,61.37360635,60.47309177
72.11942539,61.36578045,60.52958834
72.22009005,61.48381218,60.58865780
72.27229846,61.57654374,60.64279588
72.32858062,61.65083619,60.69843482
72.29781304,61.67924528,60.66788165
72.31142796,61.68471269,60.68707118
72.38357633,61.76822470,60.72941681
72.49260292,61.95272298,60.81357204
72.64772727,62.14601201,60.98241852
72.68246141,62.33897942,61.04416810
72.80006432,62.51275729,61.11610206
72.88979417,62.65244425,61.18953688
72.98970840,62.80017153,61.28237564
73.06507290,62.97223413,61.40919811
73.07900943,63.04084477,61.41005575
73.20969125,63.21054889,61.54438250
73.26061321,63.40040738,61.56528731
73.32600772,63.45593911,61.59852058
72.92828045,63.00932676,61.24453259
72.16144940,61.85484563,60.60077187
71.59852058,60.92656518,60.10366638
71.34069468,60.44468268,59.82568611
71.26404374,60.26039880,59.74324614
71.17495712,60.12521441,59.66187822
71.09712693,59.95776158,59.58940823
71.14108062,60.02465695,59.67431389
71.29995712,60.21397942,59.81625214
71.37167667,60.33522727,59.89933533
71.35666810,60.34916381,59.87017581
71.37414237,60.35313036,59.94146655
71.41412950,60.45079331,59.91262864
71.52412093,60.61352916,60.00804031
71.67795883,60.82139794,60.09048027
71.77690823,60.99088765,60.20894082
71.91820326,61.20743997,60.35366638
71.94243139,61.30349485,60.35195111
72.03591338,61.51125643,60.49903516
72.12135506,61.62392796,60.55295883
72.16713122,61.74539022,60.59423242
72.29116638,61.94339623,60.73970840
72.38539880,62.05478130,60.80049314
72.45025729,62.23970840,60.86556604
72.49067324,62.34659091,60.91091338
72.59755575,62.51350772,61.02615780
72.66873928,62.66552316,61.08276158
72.23338336,62.10709691,60.64461835
71.39515437,60.88829331,59.98885077
70.66134220,59.77690823,59.32707976
70.33833619,59.21998285,59.05060034
70.15458834,58.87864494,58.83168954
70.01918954,58.65791166,58.68321184
69.84219554,58.36513722,58.60784734
69.84626930,58.35806175,58.58919383
70.01618782,58.58179674,58.75139365
70.04770583,58.69521870,58.82300600
70.13861492,58.82622213,58.87424957
70.10581046,58.80864065,58.86996141
70.16552316,58.89965695,58.89322470
70.22169811,59.02337050,58.93481990
70.37896655,59.25525300,59.09358919
70.49367496,59.44371784,59.17249142
70.62221269,59.63014580,59.36535163
70.78162521,59.87060463,59.41798885
70.82965266,59.99110206,59.46601630
70.96226415,60.23349057,59.59240995
71.01693825,60.35891938,59.64150943
71.15458834,60.58640652,59.80810463
71.24742710,60.76329331,59.89365352
71.37735849,61.00364494,60.00686106
71.49045883,61.16691681,60.14633362
71.60977702,61.42131218,60.24163808
71.73734991,61.63679245,60.35506003
71.76243568,61.73820755,60.36127787
71.91627358,61.96129931,60.53226844
71.96601630,62.14075901,60.54899228
72.14193825,62.45733276,60.77851630
71.97394940,62.29899228,60.63304031
71.31475129,61.32246998,60.00107204
70.50525300,60.18235420,59.29620497
70.15415952,59.53880789,58.96419383
70.05328045,59.26961835,58.85881218
69.91766724,59.07289880,58.74807033
69.86417238,58.93750000,58.68235420
69.76382933,58.80199400,58.57450686
69.92720840,59.00718268,58.74860635
70.04213122,59.20250858,58.83286878
70.16262864,59.37510720,58.98788593
70.15941252,59.43449828,58.98745712
70.19704117,59.51843911,59.01372213
70.29931389,59.66680961,59.10763293
70.35870497,59.79459691,59.14150943
70.49517581,60.06786021,59.29834906
70.61556604,60.26479417,59.46355060
70.75278731,60.49892796,59.51415094
70.85806175,60.68331904,59.63143225
70.94489708,60.85741852,59.74120926
71.03076758,61.06142796,59.83501286
71.15769726,61.24839194,59.95936964
71.27530017,61.46633791,60.03816467
71.35516724,61.62296312,60.14118782
71.48188250,61.84380360,60.22459262
71.57825901,62.01243568,60.33640652
71.66509434,62.25428816,60.42409949
71.82858062,62.52862350,60.61631647
71.84969983,62.66638079,60.67452830
71.41831046,62.14172384,60.22963122
70.74592624,61.13679245,59.69168096
70.37500000,60.42259863,59.19704117
70.19007290,60.08844340,59.05585334
70.04824185,59.93760720,59.03259005
70.05381647,59.86620926,59.01072041
69.98509863,59.77154803,58.95207976
70.11031304,59.90298027,59.05006432
70.21397942,60.04009434,59.14043739
70.30445969,60.16487993,59.20347341
70.28505575,60.19993568,59.19414666
70.26940395,60.18985849,59.18106775
70.31828902,60.27283448,59.21644511
70.40823328,60.38936535,59.31132075
70.55928388,60.58415523,59.46515866
70.57204117,60.75000000,59.51843911
70.69253859,60.96054889,59.59691252
70.77154803,61.07493568,59.61803173
70.82686535,61.24539022,59.80220840
70.98777873,61.41638079,59.87221269
70.99367496,61.49067324,59.89933533
71.09230274,61.69157376,60.03655660
71.17152659,61.83297599,60.06024871
71.30499571,62.04448971,60.19243139
71.32600772,62.12424957,60.26104202
70.98520583,61.70175815,59.87500000
70.30403087,60.74785592,59.28023156
69.83651372,59.93664237,58.81014151
69.67785163,59.56121355,58.69693396
69.57557890,59.32665094,58.55713979
69.49614065,59.18717839,58.49485420
69.45840480,59.08404803,58.44511149
69.50889794,59.13947256,58.49431818
69.65040738,59.29749142,58.68664237
69.67870926,59.33994425,58.68835763
69.64483276,59.40255146,58.66391509
69.65244425,59.38850772,58.67109777
69.71408662,59.43128216,58.72051887
69.75578902,59.50900515,58.78795026
69.90448113,59.69071612,58.90683962
70.03023156,59.90394511,59.04052316
70.05553173,59.99742710,59.07590051
70.18246141,60.18674957,59.12778731
70.23960120,60.29877787,59.22973842
70.34701973,60.46001286,59.31850343
70.42667238,60.59026587,59.38507719
70.48070326,60.70690395,59.43975129
70.55467410,60.84069468,59.52251286
70.58040309,60.94682676,59.57997427
70.69318182,61.17924528,59.76157804
70.80510292,61.29524014,59.80703259
70.68267581,61.16938250,59.69275300
69.97169811,60.21012007,58.99549743
69.29888508,59.12757290,58.39000858
68.93707118,58.44350343,58.02476415
68.73702830,58.02519297,57.84401801
68.61942539,57.77337050,57.69661235
68.40737564,57.43932247,57.51500858
68.35656089,57.31089194,57.46569468
68.40523156,57.35849057,57.52465695
68.52969554,57.53741424,57.64847770
68.62328473,57.64258148,57.70325901
68.62210549,57.64268868,57.72051887
68.62896655,57.69822041,57.75375214
68.69275300,57.72963122,57.83040309
68.79834906,57.92978130,57.90876930
68.85774014,58.08051029,57.93235420
69.04524014,58.30960549,58.12950257
69.17484991,58.47716552,58.25010720
69.21472985,58.57943825,58.31828902
69.35409520,58.76747427,58.43299743
69.40887650,58.88529160,58.46226415
69.52905232,59.08436964,58.54641938
69.60591767,59.22126930,58.64236707
69.70626072,59.40523156,58.75836192
69.82086192,59.58930103,58.82665094
69.95250858,59.75568182,58.91262864
70.01329331,59.90008576,59.01951115
70.11267153,60.03912950,59.14890652
70.24003002,60.28033877,59.27069039
70.31346484,60.41295026,59.31067753
70.40222985,60.55488851,59.37671527
69.86299314,59.90951973,58.88657804
69.08072470,58.72716552,58.18578473
68.45668954,57.71762436,57.66316467
68.24753431,57.24281732,57.38153945
68.11996141,56.96880360,57.26554460
67.91380789,56.68546312,57.09069468
67.77605060,56.45229417,56.95250858
67.79352487,56.43846484,57.02465695
67.96333619,56.64258148,57.18096055
68.10077187,56.84969983,57.31603774
68.14065180,56.91102058,57.33040309
68.18085334,56.99710549,57.32279160
68.20529588,57.03226844,57.34852058
68.33544168,57.20336621,57.45722556
68.42206261,57.36996141,57.53677101
68.55521012,57.57986707,57.69650515
68.72126930,57.84305317,57.89086621
68.82075472,57.99292453,57.94339623
68.93374786,58.19575472,58.01736707
69.02883791,58.31593053,58.07257719
69.14429674,58.53409091,58.25471698
69.20743997,58.64762007,58.26854631
69.33008148,58.88432676,58.41841767
69.45883362,59.07783019,58.49013722
69.55317324,59.23992281,58.59283877
69.69843482,59.42356346,58.74131647
69.76693825,59.58812178,58.79652659
69.93717839,59.83855060,58.94854202
70.02262007,60.00375214,59.05156518
69.89461835,59.91455832,58.91563036
69.20293739,59.01833190,58.37789451
68.45497427,57.85248714,57.69725557
68.04063036,57.12103345,57.30392367
67.95915523,56.91112779,57.21322899
67.92935249,56.82107633,57.19135935
67.87521441,56.68846484,57.12414237
67.89933533,56.68042453,57.11181389
68.07118353,56.92152659,57.28066038
68.17506432,57.10924099,57.39354631
68.25761149,57.22673671,57.44607633
68.24614065,57.21226415,57.46655232
68.30874786,57.28173242,57.47448542
68.38046741,57.39397513,57.58822899
68.56871784,57.62339194,57.74281732
68.71247856,57.87028302,57.86535163
68.84198113,58.06046312,57.96054889
68.96333619,58.31239280,58.04845626
69.07858062,58.50289451,58.16777444
69.16102058,58.67238422,58.26650943
69.25139365,58.80156518,58.37446398
69.37853774,58.99796312,58.41841767
69.49346055,59.16798885,58.55070755
69.55231561,59.30960549,58.61663808
69.71633791,59.55553173,58.71312178
69.87457118,59.73091767,58.87071184
69.86728130,59.81067753,58.90501715
69.31239280,59.10677530,58.38293310
68.52283448,57.99496141,57.73252573
68.08501286,57.19650515,57.28312607
67.86706690,56.84048027,57.11620926
67.86224271,56.76811750,57.11974700
67.80596055,56.62885935,57.04909949
67.82375643,56.64751286,57.08469125
67.96033448,56.82054031,57.20711835
68.17495712,57.13314751,57.35441681
68.23874357,57.24238851,57.42806604
68.28323328,57.29030875,57.51050600
68.29706261,57.35816895,57.48274014
68.34101630,57.42227702,57.50310892
68.54266724,57.69189537,57.68203259
68.68364065,57.91305746,57.81507290
68.83383362,58.16573756,57.97126930
68.96440823,58.35977702,58.07332762
69.06410806,58.56496569,58.16573756
69.17292024,58.72244854,58.26533019
69.22502144,58.80585334,58.27926672
69.39247427,59.04041595,58.41948971
69.38304031,59.17099057,58.48252573
69.57279160,59.35237993,58.63325472
69.65469554,59.50804031,58.72716552
69.75932676,59.68621355,58.76297170
69.83587050,59.84701973,58.88304031
69.51265009,59.43117496,58.55274443
68.66809605,58.23177530,57.84648370
68.01297170,57.12382075,57.21001286
67.69897084,56.64086621,56.92774443
67.58222556,56.37081904,56.84916381
67.48006003,56.13936535,56.73885077
67.35623928,55.94886364,56.59101630
67.39976415,55.98874357,56.65748285
67.61288593,56.28527015,56.88647084
67.74924957,56.46087050,56.99560463
67.84937822,56.61138508,57.09744854
67.86181389,56.67120497,57.12017581
67.96280017,56.78462693,57.16584477
68.07289880,56.96590909,57.27958834
68.22909520,57.13711407,57.42978130
68.37778731,57.39451115,57.52851630
68.48424099,57.62360635,57.63132504
68.63121784,57.87349914,57.82804460
68.69618353,58.04995712,57.89794168
68.82139794,58.22384220,57.94575472
68.87457118,58.34219554,58.00578902
69.01254288,58.58544168,58.09423242
69.13379074,58.74571184,58.22019726
69.26211407,58.93878645,58.29942110
69.37928816,59.13036021,58.44103774
69.42924528,59.28001715,58.50107204
69.55145798,59.52765866,58.56689537
69.62789451,59.65598199,58.68514151
69.80874786,59.90566038,58.88443396
69.94575472,60.08126072,58.96462264
69.65062178,59.68942967,58.66241424
68.79341767,58.49603345,57.96751715
68.06346484,57.36963979,57.29395369
67.74903516,56.80628216,56.94650515
67.63861492,56.54641938,56.84787736
67.57622213,56.39804889,56.85173671
67.39965695,56.17560034,56.63057461
67.45561750,56.17538593,56.74592624
67.62939537,56.43364065,56.95722556
67.81753859,56.68889365,57.07911664
67.91177101,56.87446398,57.11674528
67.97577187,56.92324185,57.12864494
68.05553173,57.02379931,57.23949400
68.12199828,57.15973413,57.31260720
68.28602058,57.37199828,57.45390223
68.40780446,57.62242710,57.58469125
68.56003431,57.83769297,57.70090051
68.69093053,58.08844340,57.78934391
68.80563894,58.29877787,57.91648799
68.95765437,58.53312607,58.06657376
69.03183962,58.66455832,58.13218268
69.14772727,58.86535163,58.19189537
69.26436535,59.05038593,58.33276158
69.43321184,59.30628216,58.49431818
69.57707976,59.51211407,58.57536449
69.62553602,59.66884648,58.63604202
69.75139365,59.92592196,58.78591338
69.77776587,60.12017581,58.87424957
70.00557461,60.39601201,59.01522298
70.12124786,60.62403516,59.12639365
70.09165952,60.63925815,59.15233705
69.43889365,59.81989708,58.55188679
68.69178816,58.61674528,57.83737136
68.28216123,57.92045455,57.42045455
68.12757290,57.61642367,57.31496569
68.12414237,57.57204117,57.33683533
68.09358919,57.47480703,57.26790309
68.11374357,57.48874357,57.29448971
68.27776587,57.66948971,57.49088765
68.43031732,57.91316467,57.61106346
68.50268010,58.05199400,57.69414666
68.48531304,58.08072470,57.64290309
68.53752144,58.14043739,57.72620069
68.61963979,58.23756432,57.77444254
68.81217839,58.51222127,57.91788165
68.97748714,58.73156089,58.08168954
69.06067753,58.93503431,58.16831046
69.24324614,59.17720840,58.36631647
69.34744854,59.38689966,58.43492710
69.43921527,59.59080189,58.56014151
69.50804031,59.77626501,58.63990137
69.59005146,59.93010292,58.69704117
69.73627787,60.13829331,58.82375643
69.79170240,60.30521012,58.93406947
69.94339623,60.51479417,59.04802744
70.06861063,60.73177530,59.16466552
70.22469983,60.97362779,59.27379931
70.05285163,60.85216552,59.17334906
69.35677530,59.98413379,58.60141509
68.81689537,58.97405660,58.00171527
68.44210978,58.35420240,57.65716123
68.40351630,58.20368782,57.61813894
68.33951544,58.08715695,57.53141081
68.33126072,58.03837907,57.56389365
68.37221269,58.03987993,57.55145798
68.53334048,58.22695111,57.67463551
68.69146655,58.47469983,57.86578045
68.72126930,58.52315609,57.86792453
68.72041166,58.56260720,57.87521441
68.76533019,58.63454117,57.92999571
68.88572041,58.81410806,58.03259005
68.98713551,58.97169811,58.15544597
69.10570326,59.22641509,58.28087479
69.26265009,59.46076329,58.45797599
69.38411235,59.64376072,58.54813465
69.45604631,59.81732419,58.62199828
69.49871355,59.91509434,58.69532590
69.61159949,60.11803173,58.72309177
69.68171098,60.26104202,58.87875214
69.75214408,60.39000858,58.91659520
69.89815609,60.59969983,59.07654374
69.98552744,60.78226844,59.11974700
70.01865352,60.86406518,59.14837050
69.42624357,60.17945969,58.60698971
68.72770154,59.03687822,57.99849914
68.19972127,58.15683962,57.49195969
68.01275729,57.71515866,57.29363208
67.93031732,57.52851630,57.22469983
67.76329331,57.26801029,57.04952830
67.66348628,57.08672813,56.94757719
67.75128645,57.13529160,57.02894511
67.94446827,57.39686964,57.22855918
68.05006432,57.54984991,57.31421527
68.07086192,57.61824614,57.33201115
68.11728130,57.66552316,57.34198113
68.15994854,57.74292453,57.44189537
68.28634220,57.94993568,57.60602487
68.41445111,58.14579760,57.66616638
68.59541166,58.39858491,57.81453688
68.74217410,58.59873499,57.92377787
68.77958834,58.78173242,58.02015437
68.92377787,58.96901801,58.09509005
69.02798027,59.15834048,58.23767153
69.11631647,59.29792024,58.29491852
69.17109777,59.44768439,58.36170669
69.27958834,59.64150943,58.46719554
69.35999142,59.82825901,58.58147513
69.43514151,59.93514151,58.65662521
69.55928388,60.13775729,58.75996998
69.63304031,60.30156518,58.83908662
69.79416810,60.54738422,58.99678388
69.73381218,60.50460978,58.90340909
69.03451973,59.70454545,58.36342196
68.28677101,58.45572470,57.57943825
67.86781732,57.65941252,57.16177101
67.68889365,57.23842196,57.02765866
67.52937393,57.00493139,56.88078902
67.43857204,56.80156518,56.79363208
67.33243997,56.62703688,56.70786878
67.45861921,56.77272727,56.77830189
67.67517153,57.05081475,56.98284734
67.82504288,57.23177530,57.08619211
67.88872213,57.35120069,57.17667238
67.92045455,57.40308748,57.20261578
68.02272727,57.58404803,57.30746141
68.09187393,57.72459262,57.38196827
68.29588336,57.96526587,57.52401372
68.47405660,58.21783877,57.64622642
68.62414237,58.46783877,57.83040309
68.74528302,58.71891081,57.93289022
68.82354202,58.86663808,58.00493139
68.93707118,59.09165952,58.14547599
69.07997427,59.25900515,58.23413379
69.23424099,59.51876072,58.37660806
69.32300600,59.72180532,58.48638508
69.46794597,59.97566467,58.62489280
69.55328045,60.19714837,58.74774871
69.67292024,60.39547599,58.85924099
69.86234991,60.66895369,59.00000000
69.97137650,60.87939537,59.10966981
70.10934820,61.16959691,59.27379931
70.07472127,61.22823756,59.20915523
69.62617925,60.65426672,58.78827187
69.00879074,59.75450257,58.24785592
68.67066895,59.18181818,57.86106346
68.58887221,58.96944683,57.81571612
68.54867067,58.87006861,57.77101201
68.52079760,58.83512007,57.74957118
68.51918954,58.79684820,57.72823756
68.67024014,58.95068611,57.91209262
68.80864065,59.20122213,58.01661664
68.90951973,59.36320755,58.06367925
68.92002573,59.41981132,58.10741852
68.93149657,59.47480703,58.14804889
68.99957118,59.59862779,58.24721269
69.08619211,59.77337050,58.31367925
69.24067324,60.02262007,58.48231132
69.37382075,60.18256861,58.56828902
69.51275729,60.47630789,58.70122213
69.63068182,60.67377787,58.85688250
69.70861921,60.82825901,58.87178388
69.80049314,61.02176244,58.99903516
69.87650086,61.22813036,59.08297599
70.01640223,61.47309177,59.23445540
70.08629931,61.65576758,59.29084477
70.21537307,61.86117067,59.42141938
70.28205403,62.08629931,59.54963551
70.47673671,62.37296312,59.74346055
70.39644082,62.33747856,59.73627787
69.87607204,61.72148370,59.21140652
69.42238422,61.05145798,58.80767581
69.26608062,60.68996569,58.59198113
69.26479417,60.61320755,58.56518010
69.25246569,60.55456690,58.56099914
69.23831475,60.53334048,58.57900943
69.25814751,60.55210120,58.57182676
69.39536878,60.72813036,58.74721269
69.45379503,60.85109348,58.80756861
69.43396226,60.88550600,58.83855060
69.41434391,60.89033019,58.70250858
69.42163379,60.92935249,58.79920669
69.55285163,61.05842624,58.89933533
69.54020154,61.20400943,58.99024443
69.64418954,61.36117067,59.00932676
69.79245283,61.53473413,59.17002573
69.86363636,61.72748714,59.22255575
69.99539022,61.88518439,59.40276587
70.01811750,61.96644511,59.41520154
70.05810463,62.11921098,59.51329331
70.16981132,62.26393654,59.54952830
70.26447256,62.43621355,59.68449828
70.35559605,62.63625643,59.79834906
70.41230703,62.77873070,59.82096913
70.36159949,62.76768868,59.84551887
69.84198113,62.12114065,59.32847341
69.37135506,61.35034305,58.84048027
69.13271870,60.88915094,58.64365352
69.11567324,60.73574185,58.55027873
68.98048885,60.53516295,58.47598628
68.95250858,60.42463551,58.41520154
68.92313465,60.26554460,58.38346913
69.00664666,60.38400515,58.45197256
69.08983705,60.45240137,58.54416810
69.10012864,60.48113208,58.55124357
69.07836621,60.47866638,58.53376930
69.04491852,60.45958405,58.49796312
69.12843053,60.54909949,58.56389365
69.14429674,60.59305317,58.63228988
69.25568182,60.72094768,58.74367496
69.29738422,60.84433962,58.81710978
69.35849057,60.92774443,58.82954545
69.45379503,61.08093911,58.90533877
69.49528302,61.16123499,58.93696398
69.49882075,61.28226844,59.01468696
69.55360206,61.35205832,59.03602058
69.66691681,61.48788593,59.13582762
69.75407376,61.60248714,59.21483705
69.82086192,61.72137650,59.28033877
69.89515437,61.87349914,59.36963979
69.96226415,61.98842196,59.45261578
70.06807461,62.18021012,59.53655660
70.11963979,62.25879074,59.59262436
69.97148370,62.05145798,59.47491424
69.29663379,61.15748285,58.80778302
68.80521012,60.40898370,58.41048456
68.67034734,59.94607633,58.14633362
68.53387650,59.62178388,57.94682676
68.44629074,59.35859777,57.84551887
68.27862350,59.05156518,57.68449828
68.26768868,58.88968696,57.65769726
68.28827187,58.88775729,57.70465266
68.36620926,58.95368782,57.79052316
68.37049743,58.97212693,57.79373928
68.39354631,58.94543310,57.77926672
68.40072899,58.95132933,57.78001715
68.43846484,58.96183533,57.80231561
68.48477702,59.04073756,57.86234991
68.59937822,59.20958405,58.03055317
68.72502144,59.33286878,58.08651372
68.75911235,59.46172813,58.12617925
68.90780446,59.62671527,58.26543739
68.91873928,59.70240137,58.28923671
69.02058319,59.83147513,58.33962264
69.12650086,60.02165523,58.47362779
69.16884648,60.12189108,58.48681389
69.30767581,60.26929674,58.59433962
69.41831046,60.44661235,58.76436535
69.50332333,60.62081904,58.82429245
69.56400086,60.77476415,58.92699400
69.67667238,60.93589194,59.00643225
69.75975557,61.10495283,59.06292882
69.90351630,61.32268439,59.22748714
70.00836192,61.50879074,59.34498285
69.96312178,61.48520583,59.29180961
69.43835763,60.81164237,58.81807461
68.89333190,59.94264580,58.23724271
68.64954974,59.45186535,58.02583619
68.55756861,59.18664237,57.85859777
68.53580617,59.08340480,57.87242710
68.46494425,58.90405232,57.78205403
68.45486707,58.83994425,57.72995283
68.53730703,58.88743568,57.78859348
68.61867496,59.00460978,57.87875214
68.69854202,59.06625214,57.94854202
68.66691681,59.08844340,57.90598199
68.69050172,59.11460120,57.86481561
68.71054889,59.16959691,57.92131218
68.83265437,59.31014151,58.10752573
69.00643225,59.51500858,58.22791595
69.05885506,59.61395798,58.26082762
69.18417667,59.83747856,58.41530875
69.27358491,59.96333619,58.45990566
69.34573328,60.09316038,58.58051029
69.39579760,60.20325901,58.65308748
69.52272727,60.40737564,58.81839623
69.56850343,60.55649657,58.78205403
69.67484991,60.71129931,58.88990137
69.80263722,60.88068182,58.98231132
69.91852487,61.06689537,59.11921098
70.03623499,61.25921955,59.24056604
70.13293310,61.45733276,59.36192110
70.07493568,61.43385506,59.32343482
69.59348199,60.77830189,58.84005146
69.09573328,59.98595626,58.37253431
68.90608919,59.59626930,58.16723842
68.85527444,59.42602916,58.04931389
68.79277444,59.30306604,58.04298885
68.76876072,59.20915523,57.99924957
68.78194683,59.22212693,58.02058319
68.93096055,59.35077187,58.15373070
68.94060892,59.39987136,58.13014580
68.97963122,59.44382504,58.16702401
68.98188250,59.43021012,58.16927530
69.00257290,59.44746998,58.17517153
69.10977702,59.58383362,58.27958834
69.13614923,59.65373070,58.33426244
69.26307890,59.83512007,58.45283019
69.35548885,59.96483705,58.51093482
69.47459262,60.14140223,58.62382075
69.57750858,60.27605060,58.74045883
69.60452401,60.37768010,58.74303173
69.68096055,60.50707547,58.78516295
69.78344768,60.64365352,58.87993139
69.84444683,60.80006432,58.99088765
69.97341338,60.97019726,59.13550600
70.05199400,61.13947256,59.22823756
69.99903516,61.14890652,59.19757719
69.50932676,60.45015009,58.65855489
69.00000000,59.63143225,58.19425386
68.67474271,59.04073756,57.86535163
68.56228559,58.75868353,57.70551029
68.51382933,58.58243997,57.63346913
68.45851201,58.38175386,57.59251715
68.42356346,58.25482419,57.54727702
68.45776158,58.29524014,57.55017153
68.54084477,58.39933533,57.61417238
68.58501286,58.44714837,57.66648799
68.61760292,58.47802316,57.70015009
68.59498285,58.48134648,57.65394511
68.66198542,58.57900943,57.75032161
68.74839194,58.68900086,57.83651372
68.79373928,58.81024871,57.91745283
68.97126930,59.04030875,58.06174957
69.01736707,59.16016295,58.09069468
69.13539880,59.36352916,58.23659949
69.17270583,59.47137650,58.31828902
69.27294168,59.65844768,58.43439108
69.35645369,59.80027873,58.46430103
69.44746998,59.99013722,58.59969983
69.53441252,60.13111063,58.63647084
69.59165952,60.24045883,58.72502144
69.74088765,60.44650515,58.83479846
69.85077187,60.63443396,58.91509434
69.95433105,60.83168954,59.07740137
69.88711407,60.82493568,59.00053602
69.23595626,59.98810034,58.41906089
68.68760720,59.06539451,57.89451115
68.37682247,58.43985849,57.56421527
68.28108919,58.20497427,57.41102058
68.24646226,58.01683105,57.36481561
68.08394082,57.82000429,57.23188250
68.02744425,57.71783877,57.17560034
68.06089194,57.72126930,57.24656947
68.24131647,57.94200257,57.40769726
68.29234563,58.03076758,57.43085334
68.34187393,58.10988422,57.47309177
68.36899657,58.18567753,57.50214408
68.39826329,58.24624786,57.56807461
68.53719983,58.44414666,57.70722556
68.58790738,58.60849057,57.75343053
68.77712264,58.85816895,57.88196827
68.87135506,59.05810463,57.99378216
68.97973842,59.27390652,58.16713122
69.09659091,59.49689108,58.23724271
69.21933962,59.67581475,58.37049743
69.32493568,59.85409520,58.45572470
69.41809605,60.07225557,58.57525729
69.56721698,60.31378645,58.69972127
69.67227702,60.47566467,58.75889794
69.82793739,60.70486707,58.92549314
69.93331904,60.92216981,59.03130360
69.99238851,61.09294597,59.11738851
70.13325472,61.33115352,59.30971269
70.27315609,61.54481132,59.43932247
70.36888937,61.82064751,59.51318611
70.36717410,61.86803173,59.54084477
69.82557890,61.15876930,58.97480703
69.24667667,60.31185678,58.42463551
68.93867925,59.75000000,58.15801887
68.87403516,59.56314322,58.02476415
68.86685249,59.52487136,58.09240995
68.83629931,59.44414666,58.06550172
68.78559177,59.35313036,58.02637221
68.89601201,59.44532590,58.11406518
69.06378645,59.65147942,58.26490137
69.05424528,59.70647513,58.29288165
69.12607204,59.80939108,58.36213551
69.09562607,59.82354202,58.30424528
69.19071612,59.96280017,58.42034734
69.26039880,60.07000429,58.52219125
69.40876930,60.28355489,58.61417238
69.49506861,60.44339623,58.69125214
69.63850772,60.66723842,58.81925386
69.74035163,60.87757290,58.92367067
69.79867067,60.97791595,58.97662950
69.93203259,61.20132933,59.10849057
69.96923242,61.35966981,59.22009005
70.11438679,61.56828902,59.37446398
70.17613636,61.68728559,59.39354631
70.27283448,61.86953259,59.45679674
70.37628645,62.06196398,59.59198113
70.52915952,62.28602058,59.72598628
70.59155232,62.45390223,59.83383362
70.35613208,62.14879931,59.53709262
69.78762864,61.39418954,59.09015866
69.38357633,60.74335334,58.66016295
69.30381647,60.41938250,58.52422813
69.31046312,60.35141509,58.56024871
69.26318611,60.29556175,58.50996998
69.24228130,60.22577187,58.43760720
69.31367925,60.30467410,58.53066038
69.43235420,60.44157376,58.65147942
69.43975129,60.49078045,58.66659520
69.47813036,60.51522298,58.69682676
69.45979846,60.47180532,58.64461835
69.51029160,60.53066038,58.72448542
69.54470412,60.61803173,58.74989280
69.67774443,60.77787307,58.87478559
69.82032590,60.94361063,58.98842196
69.87253431,61.07879503,59.04641938
69.98488422,61.25932676,59.13282590
70.02476415,61.36460120,59.21901801
70.12156947,61.54909949,59.27915952
70.17870926,61.64183105,59.33329760
70.22770154,61.78194683,59.43760720
70.35077187,61.98777873,59.59455403
70.41745283,62.07246998,59.62607204
70.15019297,61.78762864,59.36395798
69.53784305,60.87896655,58.78977273
69.17602916,60.19425386,58.37371355
68.99217410,59.76747427,58.14783448
68.96065609,59.63732847,58.11610206
68.90533877,59.48960120,58.08072470
68.80510292,59.31389365,57.98198971
68.87039022,59.33136792,58.07643654
68.95347341,59.42452830,58.14193825
69.03719983,59.54792024,58.17956690
69.05113636,59.52862350,58.20765437
69.08115352,59.53719983,58.22094768
69.10688250,59.55692539,58.23574185
69.13657804,59.67474271,58.22684391
69.24614065,59.82139794,58.35656089
69.34905660,59.95411664,58.46183533
69.47223413,60.16112779,58.58329760
69.57064751,60.27798027,58.63389794
69.69671955,60.46665952,58.74774871
69.72534305,60.55167238,58.78066038
69.85527444,60.73499142,58.88850772
69.91262864,60.90383791,58.96558748
69.97030446,60.99303173,58.99667667
70.06507290,61.17463551,59.12703688
70.16777444,61.34123070,59.25846913
70.13529160,61.33747856,59.21676672
69.56400086,60.55649657,58.60602487
68.91273585,59.57289880,58.07997427
68.57943825,58.85388079,57.63132504
68.42495712,58.50514580,57.49035163
68.29223842,58.26243568,57.33597770
68.09476844,57.96483705,57.17388508
68.08983705,57.86985420,57.17131218
68.13754288,57.88775729,57.21944683
68.27036878,58.04030875,57.39987136
68.32161235,58.10934820,57.40694683
68.35698971,58.14129503,57.41359348
68.38164666,58.17838765,57.46719554
68.44371784,58.26511578,57.49581904
68.54652659,58.39965695,57.60077187
68.61202830,58.55628216,57.70122213
68.78087479,58.78795026,57.92152659
68.89804889,58.92442110,57.91305746
69.05145798,59.17367067,58.06325043
69.08179674,59.33222556,58.16005575
69.20754717,59.50428816,58.25814751
69.32975986,59.71054889,58.35313036
69.39633362,59.82793739,58.44093053
69.51168525,60.05456690,58.54384648
69.59723413,60.19757719,58.63196827
69.72930961,60.41177101,58.78334048
69.77262007,60.56357204,58.81464408
69.94307461,60.76490137,58.98359777
70.05703259,60.95347341,59.04631218
69.88743568,60.80510292,58.87307033
69.17903087,59.83533448,58.27873070
68.46848199,58.73563465,57.54888508
68.14654803,58.06721698,57.21344340
68.01586621,57.77144082,57.10355918
67.91927530,57.57686535,57.02154803
67.86470840,57.40180103,56.93138937
67.79180961,57.24056604,56.89301029
67.92817324,57.40501715,57.06625214
68.04620497,57.56528731,57.16927530
68.15458834,57.71891081,57.26822470
68.16048456,57.79127358,57.26039880
68.18674957,57.83297599,57.27744425
68.29867067,57.94275300,57.35849057
68.41380789,58.09734134,57.46633791
68.57064751,58.32000429,57.61931818
68.71033448,58.51951115,57.72791595
68.85270154,58.77294168,57.88336192
68.91981132,58.91209262,57.91916810
69.03719983,59.14140223,58.08972985
69.16134220,59.34573328,58.15641081
69.20400943,59.50782590,58.20358062
69.35216552,59.72180532,58.32407804
69.40619640,59.83908662,58.43449828
69.57547170,60.06989708,58.57354202
69.62928816,60.22319897,58.63100343
69.80349485,60.48123928,58.85709691
69.91541595,60.66948971,58.90898370
69.74603345,60.49003002,58.75996998
69.08426244,59.53516295,58.16509434
68.38314751,58.41552316,57.45647513
68.03623499,57.78966552,57.14729846
67.93900086,57.55928388,57.00096484
67.92249142,57.50032161,57.02733705
67.88239708,57.38346913,56.98231132
67.90941252,57.37360635,57.02583619
68.07450686,57.57214837,57.16756003
68.19210978,57.74292453,57.28301887
68.21751715,57.85023585,57.29470412
68.21923242,57.85023585,57.33994425
68.28387650,57.94382504,57.36084906
68.39065180,58.06174957,57.48777873
68.44554031,58.18503431,57.51865352
68.62156947,58.43160377,57.63915094
68.72427101,58.62457118,57.76093482
68.88668525,58.86631647,57.93771441
69.00182247,59.05928388,58.01983276
69.11127787,59.22384220,58.11728130
69.19425386,59.42088336,58.19875643
69.22244854,59.51447256,58.24882075
69.31936106,59.66498714,58.31871784
69.44275300,59.85506003,58.48906518
69.51683105,60.09316038,58.49003002
69.41166381,59.94596913,58.42045455
68.71301458,58.97309177,57.83222556
68.06786021,57.88025300,57.18857204
67.62135506,57.22448542,56.78301887
67.51908233,56.94639794,56.70904803
67.43289022,56.79288165,56.59005146
67.37103345,56.70658233,56.58544168
67.41638079,56.73584906,56.57118353
67.58211835,56.93117496,56.75450257
67.71612350,57.14172384,56.86170669
67.72469983,57.17281304,56.84691252
67.76672384,57.22362779,56.90801887
67.79020154,57.28548456,56.89783448
67.86567324,57.41970412,57.03012436
68.02787307,57.62307033,57.14729846
68.16723842,57.82332762,57.27337050
68.31250000,58.06185678,57.41477273
68.41262864,58.22566467,57.46623070
68.59916381,58.45572470,57.66391509
68.65759005,58.58855060,57.65201544
68.74045883,58.75568182,57.79063036
68.84069468,58.90844768,57.87092624
68.95658233,59.10195111,58.00589623
69.16573756,59.34562607,58.16059177
69.15780446,59.42645798,58.13915094
68.73177530,58.89794168,57.75793310
67.97652230,57.77090480,57.05156518
67.38550600,56.87757290,56.49614065
67.18996569,56.47169811,56.42302744
67.07986707,56.30821184,56.29749142
67.04309605,56.15072899,56.26307890
66.95733276,56.04716981,56.12521441
67.09616209,56.18213979,56.30735420
67.30703259,56.47984563,56.42088336
67.48606346,56.69253859,56.58018868
67.55617496,56.87457118,56.62928816
67.58436964,56.95293739,56.69178816
67.68814322,57.13411235,56.73681389
67.82011149,57.31239280,56.87414237
67.96355060,57.57568611,56.98756432
68.15394511,57.83126072,57.17216981
68.35334477,58.13700686,57.39279588
68.56936106,58.42635077,57.56014151
68.63057461,58.59412521,57.57890223
68.78945111,58.85999142,57.80574614
68.91273585,59.09283877,57.88722127
69.03698542,59.32086192,58.00096484
69.14365352,59.56174957,58.16852487
69.26072041,59.82268439,58.24292453
69.42817324,60.06861063,58.40523156
69.59841338,60.36320755,58.58126072
69.61063465,60.48713551,58.63657804
69.10345197,59.82343482,58.12896655
68.56142796,59.05092196,57.63454117
68.29931389,58.54459691,57.38014580
68.25986278,58.40458834,57.28280446
68.21087050,58.30992710,57.27562178
68.14837050,58.19725557,57.18867925
68.12660806,58.18171098,57.21794597
68.26608062,58.39000858,57.32761578
68.39590480,58.64097341,57.48874357
68.43857204,58.78076758,57.51104202
68.53419811,58.90662521,57.58544168
68.57021870,59.02304889,57.66520154
68.65351630,59.19382504,57.77658662
68.77176244,59.40426672,57.89569039
68.90212264,59.61910377,58.00525300
69.04867067,59.85956261,58.12564322
69.12810892,60.07107633,58.22137650
69.28527015,60.32986707,58.42956690
69.36417238,60.52690823,58.44972127
69.47534305,60.68846484,58.60784734
69.54459691,60.92795883,58.74292453
69.64515437,61.13679245,58.85634648
69.77101201,61.41016295,58.98520583
69.82750858,61.57858062,59.02347770
69.97930961,61.82665094,59.21151372
70.04180961,62.04052316,59.28151801
70.20411664,62.28473413,59.41659520
70.32611492,62.52873070,59.52765866
70.23391938,62.51007719,59.46740995
69.75568182,61.89783448,59.05971269
69.28484134,61.30392367,58.66648799
69.21515866,61.10623928,58.58243997
69.18803602,61.04995712,58.56003431
69.17388508,61.01929674,58.54352487
69.14097341,60.96665952,58.53655660
69.10602487,60.97652230,58.46322899
69.28859348,61.16959691,58.64815609
69.37596484,61.29406089,58.73445540
69.39697684,61.35688250,58.74624786
69.37360635,61.39033019,58.75546741
69.38807890,61.49078045,58.77422813
69.47802316,61.59316038,58.89654803
69.51382933,61.69264580,58.93985849
69.62039022,61.88604202,59.01918954
69.73885077,62.08126072,59.17581475
69.81142796,62.24581904,59.25804031
69.83512007,62.35656089,59.34476844
69.98027444,62.53902230,59.43610635
69.97973842,62.63346913,59.40705403
70.04373928,62.80360206,59.46826758
70.17066895,62.97598628,59.63893654
70.20122213,63.10731132,59.65576758
70.29877787,63.31400086,59.76168525
70.39569039,63.48531304,59.91948971
70.50686106,63.69982847,60.01393654
70.42120497,63.64847770,59.91884648
69.96044168,63.03376930,59.50911235
69.56421527,62.44350343,59.13711407
69.45068611,62.16959691,58.97084048
69.44746998,62.11706690,58.94275300
69.46462264,62.06260720,59.00407376
69.46269297,62.02337050,59.01951115
69.46312178,62.01801029,59.05124357
69.60270154,62.17860206,59.11256432
69.64654803,62.21665952,59.13218268
69.64922813,62.23970840,59.17517153
69.62553602,62.19350343,59.15448113
69.65566038,62.22298456,59.18138937
69.67624357,62.25750429,59.18460549
69.71805317,62.34476844,59.21805317
69.85334477,62.50000000,59.34090909
69.85709691,62.64762007,59.36481561
69.96848199,62.75214408,59.40994854
70.00514580,62.86385077,59.52508576
70.08908662,63.00225129,59.58093911
70.13239708,63.05606775,59.61288593
70.21290738,63.15973413,59.71462264
70.28066038,63.27722985,59.77165523
70.31507290,63.37317753,59.74967839
70.37285592,63.49828473,59.85120069
70.04384648,63.07279160,59.58629931
69.62081904,62.33136792,59.13882933
69.36610206,61.81314322,58.81914666
69.26157804,61.63829331,58.73734991
69.25192967,61.49506861,58.73542024
69.21773156,61.39740566,58.71172813
69.19457547,61.29620497,58.65105060
