R,G,B
43.55671098,93.69779160,59.26725986
43.35205832,93.87843053,59.27594340
43.38572041,93.90308748,59.26329331
43.46698113,93.95197256,59.24013722
43.44661235,94.00879074,59.29995712
43.48563465,94.00021441,59.30767581
43.46826758,94.01736707,59.29116638
43.44897084,94.07568611,59.34112350
43.51254288,94.06678816,59.37725129
43.53409091,94.11299314,59.40222985
43.52990995,94.15662521,59.34037307
43.55831904,94.19382504,59.39493997
43.54041595,94.22587907,59.43492710
43.56271441,94.26854631,59.44328902
43.57515009,94.30199400,59.45186535
43.58501286,94.32750858,59.44178816
43.62349914,94.37371355,59.48306175
43.60430961,94.40469554,59.47201973
43.60752573,94.44071612,59.46580189
43.50021441,94.44018010,59.44296741
43.21858919,94.17806604,59.18514151
43.12735849,94.03023156,59.12156947
43.16884648,94.00868353,59.13647084
43.22652230,94.00889794,59.17570755
43.28151801,93.97212693,59.20840480
43.30360206,93.92174099,59.14879931
43.30156518,93.83994425,59.11781732
43.33972985,93.84187393,59.13304031
43.36856775,93.82632933,59.12392796
43.37960978,93.80692539,59.14161664
43.38111063,93.77176244,59.14697684
43.04706261,93.11674528,58.46858919
43.05285163,93.10452401,58.47437822
43.07772298,93.11288593,58.46108491
43.08018868,93.11685249,58.44875643
43.10506003,93.17302744,58.56882504
43.10516724,93.16520154,58.53505575
43.09648370,93.19125214,58.53602058
43.11181389,93.19671955,58.49110206
43.10527444,93.21633791,58.50493139
43.12682247,93.25010720,58.55799743
43.11417238,93.25889794,58.55199400
43.14054460,93.29684820,58.57515009
43.13893654,93.31239280,58.60227273
43.14804889,93.36824614,58.58887221
43.14108062,93.41616638,58.62778731
43.16048456,93.44521870,58.64161664
43.18181818,93.48563465,58.63464837
43.17281304,93.50150086,58.64772727
43.13840051,93.53505575,58.62403516
42.93385506,93.38990137,58.47652230
42.75375214,93.19093053,58.33544168
42.77240566,93.14247427,58.30242281
42.84680532,93.11288593,58.35345197
42.87285592,93.07075472,58.34155232
42.87864494,93.02572899,58.35463122
42.88668525,92.98724271,58.34466123
42.92302744,92.95004288,58.36513722
42.97105489,92.95154374,58.31775300
42.98134648,92.92710120,58.33319039
42.97855918,92.89043739,58.33812178
42.99378216,92.88228988,58.32632933
43.00300172,92.86020583,58.27787307
43.04030875,92.86192110,58.32697256
43.08233276,92.88057461,58.36406518
43.07740137,92.89301029,58.38379074
43.10570326,92.90844768,58.37178388
43.11653087,92.93685678,58.40812607
43.11846055,92.95207976,58.43985849
43.12006861,92.97705832,58.41209262
43.15190823,93.01725986,58.48209691
43.14526158,93.03848628,58.47737993
43.16520154,93.09123070,58.49003002
43.16316467,93.11663808,58.49528302
43.16541595,93.15255146,58.50503859
43.16788165,93.18975129,58.52808748
43.16498714,93.21665952,58.55735420
43.17088336,93.25707547,58.54202401
43.18213979,93.30778302,58.55992710
43.09058748,93.27347770,58.50375214
42.86524443,93.11610206,58.41648799
42.80360206,92.96633791,58.28966552
42.83018868,92.98070326,58.30102916
42.88625643,92.99431818,58.32322041
42.91305746,92.96515866,58.34444683
42.93353345,92.95347341,58.35506003
42.95079331,92.92999571,58.31142796
42.98274014,92.90555317,58.31893225
42.99078045,92.91573756,58.34669811
42.97770154,92.88014580,58.33833619
42.97566467,92.88925815,58.34766295
43.00707547,92.90308748,58.33447684
43.00589623,92.90147942,58.35645369
43.05285163,92.91906089,58.32472127
43.05499571,92.93063894,58.36009863
43.06099914,92.96044168,58.34787736
43.06957547,92.98209691,58.37918096
43.07450686,93.01104202,58.40748285
43.08265437,93.03226844,58.44371784
43.08522727,93.06978988,58.42227702
43.09401801,93.09809177,58.43707118
43.09648370,93.10377358,58.43524871
43.10495283,93.16691681,58.47180532
43.10098628,93.19768439,58.47963122
43.11996141,93.25053602,58.52433533
43.15051458,93.29524014,58.52980274
43.13657804,93.32804460,58.55981990
43.12103345,93.36009863,58.59230274
43.10913379,93.37392796,58.54481132
42.92581475,93.28795026,58.38979417
42.78966552,93.14236707,58.33490566
42.79727702,93.10409520,58.30971269
42.84423242,93.11824614,58.34466123
42.88057461,93.11985420,58.37821612
42.88679245,93.12778731,58.39472556
42.90351630,93.13078902,58.41230703
42.94511149,93.16102058,58.39043739
42.93278302,93.15083619,58.38882933
42.90544597,93.14000858,58.38486278
42.88668525,93.11910377,58.37017581
42.91423671,93.11856775,58.41295026
42.91841767,93.11674528,58.38175386
42.95240137,93.16166381,58.44210978
42.96365780,93.18342624,58.44714837
42.96773156,93.24796312,58.45958405
42.99335334,93.26886792,58.45926244
43.00385935,93.30424528,58.46569468
42.97684391,93.34090909,58.53216123
43.01114923,93.37264151,58.53323328
43.01565180,93.38121784,58.54266724
43.01350772,93.41273585,58.56839623
42.99549743,93.46183533,58.53666381
43.03194683,93.50085763,58.56582333
43.03194683,93.55488851,58.62714408
43.02873070,93.61299314,58.65222985
43.02540738,93.63947256,58.65490995
42.98627787,93.64815609,58.63486278
42.77969554,93.49924957,58.43707118
42.67463551,93.36524443,58.38068182
42.67999571,93.34358919,58.36288593
42.72437822,93.34723413,58.37875214
42.75514580,93.35098628,58.45347341
42.74035163,93.36106346,58.44382504
42.78687822,93.34240995,58.45626072
42.81893225,93.34744854,58.41863208
42.82193396,93.35538165,58.44993568
42.81571612,93.35495283,58.42935249
42.81335763,93.35195111,58.45079331
42.80831904,93.34562607,58.45668954
42.85666810,93.36310034,58.48295455
42.86181389,93.37918096,58.49496141
42.86910377,93.39869211,58.47223413
42.89601201,93.43096055,58.47277015
42.88046741,93.45679674,58.51382933
42.89987136,93.50728988,58.50771870
42.87124786,93.53269726,58.49560463
42.91059177,93.55338765,58.54631218
42.90919811,93.56914666,58.56314322
42.90147942,93.63218268,58.60066467
42.90587479,93.67152659,58.58383362
42.93417667,93.70583190,58.59369640
42.93825043,93.76307890,58.63829331
42.95175815,93.79995712,58.60313036
42.94200257,93.85495283,58.67656518
42.95776158,93.88657804,58.69125214
42.91702401,93.90759005,58.68524871
42.72030446,93.77776587,58.55606775
42.55360206,93.63657804,58.41595197
42.54245283,93.57161235,58.36256432
42.61074185,93.54813465,58.42163379
42.63346913,93.53505575,58.47866638
42.64204545,93.50996998,58.40512436
42.64611921,93.43106775,58.38175386
42.69243139,93.41284305,58.40469554
42.69253859,93.39901372,58.43224700
42.69661235,93.39515437,58.45240137
42.70808319,93.38882933,58.41284305
42.72041166,93.36963979,58.45154374
42.73692110,93.39772727,58.43546312
42.77412093,93.40919811,58.42999571
42.79470412,93.39826329,58.45400943
42.78409091,93.43481990,58.44811321
42.80242281,93.47545026,58.52004717
42.82236278,93.47480703,58.50096484
42.83051029,93.49946398,58.49624786
42.84777015,93.53795026,58.55445969
42.82665094,93.55971269,58.51790309
42.85816895,93.59766295,58.55778302
42.86985420,93.60698971,58.58962264
42.89440395,93.67635077,58.63153945
42.90458834,93.70240137,58.64751286
42.90190823,93.72266295,58.62017581
42.91273585,93.76157804,58.65222985
42.91509434,93.79331046,58.63957976
42.89086621,93.83747856,58.68353345
42.89976415,93.87103345,58.69200257
42.90523156,93.93653516,58.67367067
42.92088336,93.97920240,58.70754717
42.89258148,94.01715266,58.73606346
42.69650515,93.87081904,58.64847770
42.53880789,93.73220412,58.46376501
42.52594340,93.63443396,58.44446827
42.59766295,93.63411235,58.49667667
42.63861492,93.60366638,58.48895798
42.61545883,93.56185678,58.49367496
42.61846055,93.55006432,58.43149657
42.63250429,93.49807033,58.42817324
42.66487993,93.49614065,58.44918525
42.71408662,93.50632504,58.46816038
42.70969125,93.45604631,58.47684391
42.71440823,93.43803602,58.43975129
42.74120926,93.43953688,58.48048885
42.73938679,93.43428388,58.47437822
42.77229846,93.45347341,58.47448542
42.77197684,93.44457547,58.47673671
42.78569897,93.48316895,58.49710549
42.79770583,93.49646226,58.52283448
42.81110635,93.53023156,58.44511149
42.82847341,93.55574614,58.51114923
42.82579331,93.58436964,58.56057033
42.83822899,93.60945540,58.58051029
42.85141509,93.63507719,58.60570326
42.87146226,93.68299743,58.60345197
42.87628645,93.69532590,58.62457118
42.91455832,93.78719983,58.64097341
42.92699400,93.82322041,58.64804889
42.94757719,93.87103345,58.69993568
42.93310463,93.90523156,58.72427101
42.92174099,93.90394511,58.70218696
42.89847770,93.94929245,58.67506432
42.88936535,93.99099485,58.76522298
42.90094340,94.04030875,58.74335334
42.90876930,94.08865780,58.75782590
42.91305746,94.10559605,58.76597341
42.71558748,93.95765437,58.65062178
42.50718268,93.77154803,58.48895798
42.54105918,93.76340051,58.50010720
42.59316038,93.78912950,58.53119640
42.62510720,93.75804031,58.55113636
42.61503002,93.71558748,58.49667667
42.63261149,93.64547599,58.48188250
42.64665523,93.64365352,58.48091767
42.68331904,93.64751286,58.48970840
42.70722556,93.63089623,58.52262007
42.72598628,93.63078902,58.55917667
42.74624786,93.59680532,58.54298885
42.76297170,93.60259434,58.55606775
42.77798027,93.59573328,58.55027873
42.77787307,93.62435678,58.53987993
42.80242281,93.63325472,58.63196827
42.83104631,93.64858491,58.56839623
42.85752573,93.69071612,58.61374357
42.85087907,93.71280017,58.64054460
42.88346913,93.74989280,58.61159949
42.87435678,93.77701544,58.67988851
42.87231990,93.79406089,58.65426672
42.89247427,93.83522727,58.64268868
42.88882933,93.85409520,58.65340909
42.91777444,93.89075901,58.66584477
42.93374786,93.93760720,58.71783877
42.93428388,93.97545026,58.74131647
42.92742281,94.01168525,58.73788593
42.93117496,94.04888508,58.71290738
42.94478988,94.06914666,58.76876072
42.94521870,94.12296312,58.77004717
42.92881647,94.17495712,58.76350772
42.94489708,94.23006003,58.82568611
42.96140652,94.26393654,58.84777015
42.86685249,94.21612350,58.76565180
42.65169383,94.04470412,58.68021012
42.57783019,93.95754717,58.55467410
42.60570326,93.93589194,58.56603774
42.66520154,93.96601630,58.68771441
42.68750000,93.95250858,58.66069897
42.71719554,93.93524871,58.63078902
42.69253859,93.90351630,58.62264151
42.71955403,93.91659520,58.62564322
42.73734991,93.93374786,58.57075472
42.71462264,93.92045455,58.56217839
42.70090051,93.90115780,58.56968268
42.72984563,93.90716123,58.64065180
42.78430532,93.91680961,58.66766724
42.82654374,93.93503431,58.72384220
42.84101630,93.95358062,58.72566467
42.82354202,93.98241852,58.68417667
42.81410806,94.00536021,58.68074614
42.83587050,94.03527015,58.72823756
42.83844340,94.05135077,58.73981561
42.84648370,94.08018868,58.74635506
42.85913379,94.09755575,58.76586621
42.87907376,94.12735849,58.74078045
42.89676244,94.16605918,58.78870069
42.89225986,94.21151372,58.78398370
42.90844768,94.26543739,58.82225557
42.90726844,94.30349485,58.82257719
42.93171098,94.33672813,58.84830617
42.93331904,94.36063465,58.86985420
42.91895369,94.43138937,58.86642367
42.90437393,94.44446827,58.89215266
42.92506432,94.45636792,58.87017581
42.90373070,94.49721269,58.92945969
42.79556175,94.43192539,58.85345197
42.57922384,94.25096484,58.68235420
42.57793739,94.19907804,58.67270583
42.60548885,94.20111492,58.68739280
42.67013293,94.22523585,58.67763722
42.71044168,94.22159091,58.72094768
42.69210978,94.23499142,58.76329331
42.71333619,94.22920240,58.76736707
42.74496141,94.21387221,58.71430103
42.69446827,94.21033448,58.71505146
42.70561750,94.18439108,58.76029160
42.72137650,94.18835763,58.71044168
42.73466981,94.21901801,58.78141081
42.78409091,94.23413379,58.78430532
42.81893225,94.29448971,58.80628216
42.83243997,94.29899228,58.82364923
42.84326758,94.31132075,58.78966552
42.83544168,94.33865780,58.83051029
42.85430961,94.35152230,58.80928388
42.86910377,94.36052744,58.79792024
42.86749571,94.39301029,58.83126072
42.87167667,94.43728559,58.86996141
42.86867496,94.45100772,58.85688250
42.87360635,94.49774871,58.88582762
42.88947256,94.53162521,58.90040738
42.87596484,94.57922384,58.86159949
42.89086621,94.61921098,58.90587479
42.89686964,94.65694683,58.89236707
42.87757290,94.66959691,58.91638079
42.90062178,94.70186535,58.97373499
42.91766724,94.73606346,58.97362779
42.82418525,94.72084048,58.93910806
42.55317324,94.50814751,58.70004288
42.48434820,94.41359348,58.71183533
42.54770583,94.41048456,58.70143654
42.60538165,94.42849485,58.75075043
42.64408233,94.41316467,58.76801029
42.63775729,94.39290309,58.82643654
42.63496998,94.35752573,58.74281732
42.66059177,94.37328473,58.74635506
42.68632075,94.34584048,58.79631218
42.70122213,94.32236278,58.77712264
42.69468268,94.32182676,58.76093482
42.71376501,94.29631218,58.76608062
42.74581904,94.29620497,58.77133362
42.78376930,94.32858062,58.82772298
42.82064751,94.36031304,58.86631647
42.81978988,94.37810892,58.81807461
42.84755575,94.39429674,58.87178388
42.83522727,94.41498714,58.82257719
42.83565609,94.42870926,58.83951544
42.84712693,94.44296741,58.87907376
42.83329760,94.44586192,58.85538165
42.84766295,94.46794597,58.86545883
42.89065180,94.52337050,58.91337907
42.87403516,94.54277444,58.88132504
42.88775729,94.57622213,58.92249142
42.88636364,94.61663808,58.95518868
42.87628645,94.62650086,58.95390223
42.87939537,94.65898370,58.98810034
42.88089623,94.70165094,58.99131647
42.89665523,94.74678388,59.01393654
42.91627358,94.78355489,59.00568182
42.90415952,94.81153516,58.98349057
42.82579331,94.80177959,58.97159091
42.59937822,94.63625643,58.74174528
42.50192967,94.44189537,58.67345626
42.49313894,94.43181818,58.79888508
42.58083190,94.43803602,58.78966552
42.60977702,94.42624357,58.80167238
42.62510720,94.40276587,58.81871784
42.61824614,94.29084477,58.73038165
42.64504717,94.29813465,58.77798027
42.68610635,94.30917667,58.68632075
42.70797599,94.30596055,58.76072041
42.71419383,94.30381647,58.76286449
42.74431818,94.28269726,58.77776587
42.77069039,94.25096484,58.81442967
42.78687822,94.26415094,58.76050600
42.83361921,94.30188679,58.80531732
42.83683533,94.31753859,58.81046312
42.87446398,94.32643654,58.81614494
42.89140223,94.35109348,58.84466123
42.88936535,94.38207547,58.78559177
42.90737564,94.39708405,58.84476844
42.92099057,94.42356346,58.90319468
42.92270583,94.45250858,58.90040738
42.94328902,94.49453259,58.89461835
42.92141938,94.50868353,58.88647084
42.93985849,94.56292882,58.92334906
42.95572470,94.57300600,58.91434391
42.94457547,94.61374357,58.95100772
42.96419383,94.66037736,58.97319897
42.97148370,94.69253859,58.99056604
42.95132933,94.72748714,58.99035163
42.94746998,94.74978559,58.99249571
42.95733276,94.81325043,59.03430532
42.98113208,94.85591767,59.03066038
42.94403945,94.86106346,59.02079760
42.73048885,94.71333619,58.86728130
42.51029160,94.53366209,58.70947684
42.52240566,94.45250858,58.69564751
42.60559605,94.43449828,58.76725986
42.63689966,94.46537307,58.79448971
42.66659520,94.44339623,58.79952830
42.66552316,94.41766724,58.72427101
42.67624357,94.40544597,58.75750429
42.71129931,94.40147942,58.78612779
42.71183533,94.39215266,58.76972556
42.74721269,94.37221269,58.78108919
42.74656947,94.36706690,58.80145798
42.77133362,94.35195111,58.80392367
42.78687822,94.37392796,58.79609777
42.83211835,94.39536878,58.83554889
42.86695969,94.38539880,58.83093911
42.89343911,94.43246141,58.85763293
42.88346913,94.46601630,58.90876930
42.89376072,94.48466981,58.89976415
42.89354631,94.51704545,58.87274871
42.91616638,94.52680103,58.89429674
42.91873928,94.55231561,58.91037736
42.91112779,94.57643654,58.90876930
42.90619640,94.60945540,58.93342624
42.93428388,94.64504717,58.94607633
42.94393225,94.66691681,58.97995283
42.93085334,94.69221698,58.99646226
42.93621355,94.74903516,58.94822041
42.95325901,94.77873070,58.97598628
42.95068611,94.83897942,59.06475129
42.97394940,94.86052744,59.02283448
42.96033448,94.89837050,59.04588336
42.94575472,94.92195540,59.06046312
42.79963551,94.80177959,58.92935249
42.45486707,94.62296312,58.79363208
42.49099485,94.54931389,58.74742710
42.56046312,94.53366209,58.77337050
42.59787736,94.53741424,58.83201115
42.65276587,94.52990995,58.80778302
42.65726844,94.47287736,58.83930103
42.68256861,94.44436106,58.77776587
42.71215695,94.41155660,58.79899228
42.74067324,94.41691681,58.78569897
42.76618782,94.40340909,58.79491852
42.74860635,94.38218268,58.77883791
42.76929674,94.35677530,58.78816467
42.80971269,94.37317753,58.77369211
42.84112350,94.39879931,58.82311321
42.85924099,94.42913808,58.82171955
42.87746569,94.43642796,58.81593053
42.91423671,94.43053173,58.84905660
42.91809605,94.46312178,58.89772727
42.92849485,94.48595626,58.86867496
42.92935249,94.52347770,58.94779160
42.93599914,94.53527015,58.92334906
42.94811321,94.54738422,58.93653516
42.95626072,94.58554889,58.91466552
42.97684391,94.62735849,58.91788165
42.98123928,94.65233705,58.93128216
42.98177530,94.69382504,58.91466552
42.98434820,94.71740995,58.94210978
42.96858919,94.76918954,58.94950686
42.99153087,94.79834906,58.97201973
43.01179245,94.83683533,59.03880789
43.00525300,94.88068182,59.04856346
42.84015866,94.80778302,58.93642796
42.68717839,94.62993139,58.85248714
42.60645369,94.49817753,58.74989280
42.64493997,94.48520583,58.76779588
42.69629074,94.49260292,58.78612779
42.76275729,94.50332333,58.86031304
42.77401372,94.46355060,58.86578045
42.81582333,94.45947684,58.81067753
42.82740137,94.45154374,58.83640652
42.82911664,94.43867925,58.79138079
42.82590051,94.40823328,58.83040309
42.82579331,94.36824614,58.79534734
42.86963979,94.35613208,58.78709262
42.89579760,94.36063465,58.80210120
42.92409949,94.39108062,58.83319039
42.97051887,94.42227702,58.82557890
42.99035163,94.42860206,58.81475129
42.99099485,94.46505146,58.86749571
43.00310892,94.48874357,58.90812607
43.00932676,94.49388937,58.90855489
43.00493139,94.50385935,58.91616638
43.01565180,94.50986278,58.88572041
43.01275729,94.54984991,58.95529588
43.01876072,94.59487564,58.94243139
43.03505575,94.61074185,58.94671955
43.03259005,94.63507719,59.00986278
43.01436535,94.67345626,59.00943396
43.04609777,94.68138937,58.96719554
43.06260720,94.71076329,58.99678388
43.05949828,94.74667667,59.02369211
42.99324614,94.73209691,58.96558748
42.69028731,94.57750858,58.83994425
42.68310463,94.40373070,58.72019726
42.70293739,94.31528731,58.73488422
42.82139794,94.30553173,58.75836192
42.86888937,94.32557890,58.80113636
42.90909091,94.32547170,58.80381647
42.91788165,94.32397084,58.79845626
42.95626072,94.30274443,58.83233276
42.94907804,94.27690823,58.86374357
42.95036449,94.23081046,58.82472127
42.95465266,94.17999571,58.72051887
42.97823756,94.15791166,58.72480703
43.02047599,94.17806604,58.79684820
43.03912950,94.17785163,58.81893225
43.07493568,94.22373499,58.85645369
43.12103345,94.23274014,58.89611921
43.12939537,94.24839194,58.83265437
43.14236707,94.26608062,58.87414237
43.15190823,94.27219125,58.89912093
43.14526158,94.27540738,58.86224271
43.13100343,94.29309605,58.89644082
43.13786449,94.31796741,58.89150943
43.14719125,94.35302316,58.90340909
43.16059177,94.34326758,58.89944254
43.16713122,94.39719125,58.89075901
43.16305746,94.44843482,58.97888079
43.17667238,94.49421098,58.93674957
43.21537307,94.53376930,59.00010720
43.19264580,94.54256003,58.99367496
42.95475986,94.35334477,58.82439966
42.76629503,94.12307033,58.66530875
42.78955832,93.95765437,58.54470412
42.88765009,93.91144940,58.59712693
42.95304460,93.88464837,58.65716123
43.03430532,93.80874786,58.64987136
43.04824185,93.75921955,58.65373070
43.07686535,93.67506432,58.61245712
43.11846055,93.63089623,58.63261149
43.14933533,93.61888937,58.64547599
43.16573756,93.56539451,58.62414237
43.17720840,93.51511578,58.60323756
43.20679674,93.44907804,58.62896655
43.27036878,93.46140652,58.60977702
43.29909949,93.41595197,58.60141509
43.32204117,93.42216981,58.60913379
43.33844340,93.45079331,58.66412950
43.35666810,93.46065609,58.64075901
43.36738851,93.48895798,58.60688250
43.37885935,93.47277015,58.61792453
43.40126501,93.49946398,58.73059605
43.40887650,93.50235849,58.67838765
43.40330189,93.52144082,58.65030017
43.40458834,93.52873070,58.69146655
43.43171098,93.54770583,58.71730274
43.43642796,93.57729417,58.70057890
43.43621355,93.59701973,58.73552744
43.43664237,93.63604202,58.75782590
43.43921527,93.66841767,58.76704545
43.43857204,93.68492710,58.74474700
43.39665523,93.67431389,58.72041166
43.13625643,93.43514151,58.46816038
43.08833619,93.16273585,58.32547170
43.12768010,92.94800600,58.29834906
43.18589194,92.93782161,58.36106346
43.27144082,92.89644082,58.40458834
43.34841338,92.82697256,58.35227273
43.34959262,92.71472985,58.33865780
43.42238422,92.65716123,58.31689537
43.48992281,92.61942539,58.33554889
43.49796312,92.55799743,58.32150515
43.54213122,92.50911235,58.29148799
43.56024871,92.45690395,58.25514580
43.58351201,92.40340909,58.21580189
43.62135506,92.38421955,58.28752144
43.67645798,92.41144940,58.26822470
43.67710120,92.42066895,58.32375643
43.69650515,92.43642796,58.32665094
43.70894082,92.43578473,58.33158233
43.73756432,92.45325901,58.34991424
43.72534305,92.46226415,58.35977702
43.72073328,92.47009005,58.34058748
43.72973842,92.49346055,58.35195111
43.75139365,92.49131647,58.38711407
43.74860635,92.51725986,58.36674528
43.74721269,92.55360206,58.41680961
43.75621784,92.57225557,58.44789880
43.77680103,92.60398799,58.44939966
43.75868353,92.66927530,58.40812607
43.73788593,92.67120497,58.43771441
43.76232847,92.70679674,58.47545026
43.78312607,92.74774871,58.50932676
43.71483705,92.71590909,58.44532590
43.47191252,92.46012007,58.21076329
43.33576329,92.16102058,58.07482847
43.47062607,92.07311321,58.08833619
43.59262436,91.99549743,58.08533448
43.64826329,91.93685678,58.11310034
43.68503431,91.87071184,58.04888508
43.69328902,91.81014151,58.03848628
43.72212693,91.76715266,58.02122642
43.75000000,91.71226415,58.02401372
43.78269726,91.68299743,58.02433533
43.79266724,91.61921098,58.04738422
43.79770583,91.55585334,57.99474700
43.85591767,91.54524014,57.97834477
43.90319468,91.58243997,58.02755146
43.90748285,91.57557890,58.01340051
43.93374786,91.58597770,58.01951115
43.93364065,91.60924099,57.99110206
43.93674957,91.65394511,58.05596055
43.94275300,91.65909091,58.04138079
43.97051887,91.66777444,58.06657376
43.97159091,91.70100772,58.05499571
43.96376501,91.73306175,58.09584048
43.98574185,91.76018439,58.10259434
44.00471698,91.80124357,58.14129503
44.00407376,91.83340480,58.16638079
44.01554460,91.85452401,58.14654803
44.03162521,91.89354631,58.20272298
44.00879074,91.93632075,58.18632075
44.01747427,91.97609348,58.22652230
44.01833190,92.02497856,58.22502144
44.01865352,92.08254717,58.26779588
44.00375214,92.11052744,58.25846913
43.72555746,91.95261578,58.03451973
43.67259863,91.70861921,57.90801887
43.70025729,91.55424528,57.89365352
43.77401372,91.49099485,57.91509434
43.83651372,91.45786878,57.91734563
43.88561321,91.44071612,57.95551029
43.89826329,91.37146226,57.93106775
43.93256861,91.36545883,57.96601630
43.95240137,91.36749571,57.95819039
43.96880360,91.34273156,57.95250858
43.97105489,91.26479417,57.86963979
43.97512864,91.22770154,57.87221269
44.00139365,91.23166810,57.89526158
44.05435249,91.24153087,57.90598199
44.08790738,91.24228130,57.91723842
44.12521441,91.29116638,57.96204974
44.13625643,91.33565609,57.95765437
44.13132504,91.32171955,57.94886364
44.11588765,91.35023585,57.96022727
44.14204545,91.36781732,57.99217410
44.12757290,91.39879931,57.96998285
44.12768010,91.43149657,57.99324614
44.14590480,91.44714837,58.01983276
44.13421955,91.50278731,58.04138079
44.15791166,91.56185678,58.10045026
44.13379074,91.62371355,58.11856775
44.15962693,91.66048456,58.11610206
44.14901372,91.70325901,58.12006861
44.17195540,91.75042882,58.14279588
44.17699400,91.80992710,58.17377787
44.13196827,91.81314322,58.17785163
43.84455403,91.63336192,57.93010292
43.82279160,91.43342624,57.82107633
43.88207547,91.29952830,57.78108919
43.97019726,91.27894511,57.84412521
44.02551458,91.28730703,57.89837050
44.05949828,91.26640223,57.87853774
44.08522727,91.25996998,57.88218268
44.09669811,91.29545455,57.90458834
44.12006861,91.28816467,57.90951973
44.10237993,91.22845197,57.89290309
44.10302316,91.20979846,57.89290309
44.15683962,91.17913808,57.90212264
44.17367067,91.18739280,57.88936535
44.18739280,91.20197256,57.99313894
44.22009005,91.24045883,57.93256861
44.22555746,91.25557461,57.96612350
44.25546741,91.29749142,57.96537307
44.26790309,91.35623928,58.00632504
44.28709262,91.37092624,58.01608062
44.27926672,91.38625643,58.05306604
44.26329331,91.41895369,58.03173242
44.28730703,91.46676672,58.05253002
44.32579331,91.53934391,58.16991852
44.31185678,91.55370926,58.14504717
44.30188679,91.59026587,58.15394511
44.29524014,91.63722127,58.18117496
44.29127358,91.69521870,58.18771441
44.31957547,91.75182247,58.21944683
44.29781304,91.79931389,58.19682676
44.12950257,91.62264151,58.03880789
43.97469983,91.38765009,57.91788165
43.97995283,91.20293739,57.84551887
44.04395369,91.16873928,57.83168954
44.14762007,91.12682247,57.87832333
44.20883362,91.11427959,57.86942539
44.19382504,91.05038593,57.84198113
44.24271012,91.03730703,57.82654374
44.27079760,91.04566895,57.85184391
44.28848628,91.02605060,57.86224271
44.29105918,90.95808319,57.85216552
44.29459691,90.93117496,57.85634648
44.32900943,90.90169383,57.83051029
44.38164666,90.92174099,57.85291595
44.39708405,90.93524871,57.87671527
44.42860206,90.96183533,57.89086621
44.44403945,91.00578902,57.94189537
44.46076329,91.03666381,57.94168096
44.49142367,91.08426244,57.95240137
44.50643225,91.09283877,57.96162093
44.49957118,91.12092624,57.98734991
44.49378216,91.18074614,58.03623499
44.47405660,91.20154374,58.01908233
44.50493139,91.23477702,58.03516295
44.50782590,91.26725986,58.06378645
44.48531304,91.32064751,58.06507290
44.52722985,91.37114065,58.08104631
44.53795026,91.43374786,58.12585763
44.55542453,91.50139365,58.12789451
44.53516295,91.52873070,58.13893654
44.43106775,91.51382933,58.13261149
44.22727273,91.25128645,57.88164666
44.14547599,91.01447256,57.76618782
44.23338336,90.84466123,57.70765437
44.29459691,90.79802744,57.75064322
44.36202830,90.74710549,57.75546741
44.41616638,90.71869640,57.82547170
44.45454545,90.65909091,57.73520583
44.50150086,90.62607204,57.80210120
44.51908233,90.58897942,57.74721269
44.53741424,90.53848628,57.73981561
44.55338765,90.50514580,57.76908233
44.56753859,90.47641509,57.75192967
44.58308319,90.48188250,57.74753431
44.61417238,90.50310892,57.74324614
44.65383791,90.50075043,57.74024443
44.67785163,90.51597341,57.75846913
44.70272298,90.58179674,57.80928388
44.73070326,90.59841338,57.82804460
44.75042882,90.62993139,57.86813894
44.75171527,90.67452830,57.89987136
44.74871355,90.69789880,57.89258148
44.74410377,90.75418096,57.89997856
44.74142367,90.77594340,57.88121784
44.74206690,90.83018868,57.93310463
44.73563465,90.86106346,57.96054889
44.76575901,90.92570755,58.00868353
44.76779588,90.95947684,58.00600343
44.81239280,91.02444254,58.07997427
44.82086192,91.10280875,58.08715695
44.82214837,91.16391509,58.10152230
44.80006432,91.20400943,58.11846055
44.60259434,91.05542453,57.98466981
44.43171098,90.78527015,57.79191681
44.48434820,90.57997427,57.74442539
44.53762864,90.54920669,57.73595626
44.62017581,90.51254288,57.72695111
44.68760720,90.46848199,57.77144082
44.68289022,90.41745283,57.76329331
44.72341338,90.37671527,57.74142367
44.78151801,90.37392796,57.77058319
44.78130360,90.35570326,57.75450257
44.81593053,90.31635935,57.77047599
44.82418525,90.27251286,57.73992281
44.84058748,90.26918954,57.73381218
44.87532161,90.26554460,57.72566467
44.90051458,90.31110635,57.76415094
44.93900086,90.33372642,57.79877787
44.94307461,90.34701973,57.83436964
44.94382504,90.39022298,57.83855060
44.98627787,90.43160377,57.90180103
44.99431818,90.48509863,57.84444683
45.00418096,90.53827187,57.94607633
44.98895798,90.59444683,57.91455832
44.98574185,90.64547599,57.93342624
44.98874357,90.68449828,57.95336621
45.02594340,90.72684391,57.99142367
45.04127358,90.77583619,58.03805746
45.04073756,90.85677530,58.02787307
45.01790309,90.91627358,58.08436964
45.00611063,90.96687393,58.10280875
45.04524014,91.03409091,58.10977702
45.07021870,91.10280875,58.16906089
44.97437822,91.09358919,58.12189108
44.74678388,90.86299314,57.86106346
44.61931818,90.69843482,57.80778302
44.71794597,90.62017581,57.79127358
44.79320326,90.60473842,57.84809177
44.85881218,90.58394082,57.84444683
44.87339194,90.57150515,57.83930103
44.88979417,90.55960549,57.85463122
44.91219983,90.55478130,57.86695969
44.95765437,90.56271441,57.89033019
44.96269297,90.54674099,57.85270154
44.95883362,90.52186964,57.86792453
44.99056604,90.51865352,57.86513722
45.01082762,90.55499571,57.87810892
45.03505575,90.55113636,57.88175386
45.04802744,90.57975986,57.92517153
45.05735420,90.62060463,57.92935249
45.06325043,90.66059177,57.95368782
45.09573328,90.72051887,57.98102487
45.10634648,90.74506861,58.02401372
45.12017581,90.81400086,58.06614494
45.12114065,90.84605489,58.09283877
45.11888937,90.88947256,58.12875214
45.11867496,90.94264580,58.12553602
45.14236707,90.99335334,58.17517153
45.13904374,91.06057033,58.16627358
45.14654803,91.10152230,58.18535592
45.15437393,91.15673242,58.19468268
45.16959691,91.23327616,58.23842196
45.14311750,91.29191681,58.26768868
45.04395369,91.26886792,58.20754717
44.84144511,91.04556175,58.02497856
44.82525729,90.93096055,57.94982847
44.87317753,90.81657376,57.93063894
44.93524871,90.85227273,57.99185249
44.97737993,90.88647084,57.99667667
45.03334048,90.90126501,58.00203688
45.05370926,90.89783448,57.94521870
45.07289880,90.91037736,58.01886792
45.03891509,90.90040738,58.08522727
45.03462693,90.85731132,58.07600772
45.04716981,90.85806175,58.06260720
45.06410806,90.86342196,58.06432247
45.09176672,90.87242710,58.11234991
45.12703688,90.92656518,58.06700257
45.15705403,90.98295455,58.10130789
45.16627358,91.03269726,58.14354631
45.18417667,91.07418525,58.18546312
45.22598628,91.16209262,58.23584906
45.20540309,91.17152659,58.18546312
45.20390223,91.21419383,58.17088336
45.20936964,91.24560463,58.22459262
45.19800600,91.29213122,58.23359777
45.20475986,91.33683533,58.27594340
45.20529588,91.39654803,58.30177959
45.21612350,91.45068611,58.32568611
45.24346055,91.54448971,58.38175386
45.21215695,91.56378645,58.39354631
45.08672813,91.53076758,58.32021870
44.88614923,91.35484563,58.14579760
44.83158233,91.18685678,58.08715695
44.90641081,91.16798885,58.11567324
44.97062607,91.12264151,58.12071184
45.03098199,91.11588765,58.09809177
45.05210120,91.09026587,58.12371355
45.06024871,91.07997427,58.13271870
45.09294597,91.09037307,58.15598199
45.09487564,91.07364923,58.15705403
45.09551887,91.05906947,58.12339194
45.11663808,91.04545455,58.09777015
45.10430961,91.04856346,58.12146226
45.14890652,91.08136792,58.16027015
45.17785163,91.10173671,58.17442110
45.18331904,91.14236707,58.16144940
45.20293739,91.18149657,58.19307461
45.21076329,91.22791595,58.24506861
45.23756432,91.27401372,58.26650943
45.25621784,91.30102916,58.30617496
45.25718268,91.36503002,58.31914666
45.26961835,91.40898370,58.36202830
45.25739708,91.44093053,58.32707976
45.25117925,91.49946398,58.36653087
45.28698542,91.54191681,58.35538165
45.31046312,91.60870497,58.42002573
45.27980274,91.65737564,58.40008576
45.25589623,91.70293739,58.36953259
45.26222127,91.77572899,58.45861921
45.20079331,91.78119640,58.41713122
44.90619640,91.55285163,58.26447256
44.85045026,91.35559605,58.13411235
44.90973413,91.31989708,58.15030017
44.97362779,91.27894511,58.14708405
45.02315609,91.25514580,58.15759005
45.05274443,91.24013722,58.15608919
45.06153516,91.20926244,58.12907376
45.10388079,91.20336621,58.17292024
45.11460120,91.21001286,58.19071612
45.12650086,91.19018010,58.16595197
45.13604202,91.17763722,58.18750000
45.14258148,91.18031732,58.21076329
45.14772727,91.18096055,58.18910806
45.16895369,91.20047170,58.19961407
45.22191252,91.29416810,58.27315609
45.24378216,91.32804460,58.26072041
45.26254288,91.35216552,58.26533019
45.26093482,91.38207547,58.29030875
45.27605060,91.40962693,58.32836621
45.27647942,91.44693396,58.33737136
45.25921955,91.49163808,58.34133791
45.30478130,91.55370926,58.42592196
45.26307890,91.60377358,58.44103774
45.27476415,91.64976415,58.43664237
45.26297170,91.69757719,58.46708834
45.28580617,91.74892796,58.47963122
45.29684820,91.80971269,58.50889794
45.29770583,91.86310034,58.52583619
45.29352487,91.93632075,58.58147513
45.28752144,91.99549743,58.61127787
45.14150943,91.93096055,58.46355060
44.88818611,91.72244854,58.28376930
44.85302316,91.57000429,58.22309177
44.88582762,91.50439537,58.22695111
44.99785592,91.49271012,58.25278731
45.03677101,91.48252573,58.26318611
45.05692539,91.47652230,58.28355489
45.07815180,91.46044168,58.31442967
45.09369640,91.46290738,58.23799314
45.11781732,91.47823756,58.27519297
45.13882933,91.47695111,58.28205403
45.12435678,91.46162093,58.30403087
45.14558319,91.45861921,58.28880789
45.16037736,91.46290738,58.32032590
45.17828045,91.50096484,58.30563894
45.22009005,91.53955832,58.33844340
45.23788593,91.57064751,58.38046741
45.22813036,91.62885935,58.38293310
45.26372213,91.67216981,58.42152659
45.26168525,91.73681389,58.44693396
45.25804031,91.76447256,58.45207976
45.26725986,91.81292882,58.45979846
45.27476415,91.85366638,58.47244854
45.29663379,91.90448113,58.51661664
45.29256003,91.95765437,58.56571612
45.27379931,92.00621784,58.59433962
45.26382933,92.06314322,58.55220840
45.30381647,92.11084906,58.61449400
45.26983276,92.17549314,58.65362350
45.25932676,92.21537307,58.67056175
45.28784305,92.31657376,58.69350343
45.22630789,92.33308319,58.73274014
44.99646226,92.19071612,58.52347770
44.86524443,92.00053602,58.40533877
44.87028302,91.94018010,58.36942539
44.93632075,91.92088336,58.36106346
44.99935678,91.92560034,58.41252144
45.04438250,91.91852487,58.45433105
45.04824185,91.93889365,58.42945969
45.07268439,91.91059177,58.41831046
45.08093911,91.92141938,58.48402659
45.09412521,91.92602916,58.46054889
45.09584048,91.93138937,58.49292453
45.11267153,91.91948971,58.44350343
45.14150943,91.93439108,58.46226415
45.14215266,91.96462264,58.49078045
45.18160377,91.97727273,58.50343053
45.19575472,92.02980274,58.56625214
45.21397942,92.08190395,58.58340480
45.21987564,92.14976415,58.63411235
45.22641509,92.15930532,58.60570326
45.23220412,92.18760720,58.62500000
45.23906518,92.24013722,58.66337907
45.23584906,92.28859348,58.70283019
45.22309177,92.32879503,58.66284305
45.23927959,92.36363636,58.70776158
45.22909520,92.43063894,58.74388937
45.23885077,92.48842196,58.74421098
45.26254288,92.54406089,58.79448971
45.26318611,92.57943825,58.81207118
45.26811750,92.63111063,58.80906947
45.22062607,92.66916810,58.81775300
44.98799314,92.54331046,58.66123499
44.86728130,92.38529160,58.53987993
44.83479846,92.26404374,58.42506432
44.88454117,92.26104202,58.56250000
44.97159091,92.29599057,58.59573328
45.01286449,92.30274443,58.56475129
45.04738422,92.32268439,58.56775300
45.08222556,92.34144511,58.63668525
45.10527444,92.36299314,58.58233276
45.10227273,92.37457118,58.63979417
45.07847341,92.35270154,58.59734134
45.07665094,92.32793739,58.59509005
45.10259434,92.30478130,58.64933533
45.14204545,92.36674528,58.65919811
45.16981132,92.40415952,58.67517153
45.18878645,92.45143654,58.75611063
45.20990566,92.48670669,58.75257290
45.20529588,92.53827187,58.71280017
45.18106775,92.55285163,58.76189966
45.21290738,92.59991424,58.76265009
45.22309177,92.67677959,58.86910377
45.22298456,92.71655232,58.90737564
45.20679674,92.74860635,58.86738851
45.21655232,92.79095197,58.89301029
45.20593911,92.81614494,58.84787736
45.21322899,92.87124786,58.86267153
45.20690395,92.91573756,58.91745283
45.18792882,92.95165094,58.89011578
45.00964837,92.84283877,58.73177530
44.84155232,92.68782161,58.62414237
44.83694254,92.54856346,58.55585334
44.90019297,92.54749142,58.65512436
44.98316895,92.55328045,58.64333190
45.03001715,92.53966552,58.67409949
45.05917667,92.54502573,58.69854202
45.07622213,92.55756861,58.73038165
45.08972985,92.56271441,58.73466981
45.08190395,92.56003431,58.68481990
45.06442967,92.52626501,58.69307461
45.03902230,92.47598628,58.69018010
45.09723413,92.49431818,58.75675386
45.14558319,92.50771870,58.71162093
45.16434391,92.53248285,58.73917238
45.20036449,92.56593053,58.76061321
45.22084048,92.61620926,58.78516295
45.20443825,92.65062178,58.77154803
45.20283019,92.69746998,58.76972556
45.20604631,92.72920240,58.83361921
45.22319897,92.76350772,58.81174957
45.21816038,92.79663379,58.83308319
45.19800600,92.80542453,58.81807461
45.20433105,92.82954545,58.90115780
45.22159091,92.87896655,58.93063894
45.20733276,92.91295026,58.87242710
45.03741424,92.82300600,58.85945540
44.88368353,92.59037307,58.70722556
44.86138508,92.36674528,58.54620497
44.92795883,92.31775300,58.56946827
45.01629503,92.27508576,58.59969983
45.08801458,92.26490137,58.62489280
45.12339194,92.23767153,58.59401801
45.14311750,92.17399228,58.60645369
45.17635077,92.16198542,58.62918096
45.19436106,92.14590480,58.61503002
45.20218696,92.10613208,58.55360206
45.22180532,92.05585334,58.55456690
45.22834477,92.00471698,58.51179245
45.27465695,92.01372213,58.55124357
45.30842624,92.01039880,58.60195111
45.35012864,92.03923671,58.62928816
45.34755575,92.07997427,58.57568611
45.37124786,92.11438679,58.64912093
45.39247427,92.13818611,58.62746569
45.40576758,92.14954974,58.67141938
45.39697684,92.17356346,58.69607633
45.43171098,92.20786878,58.69200257
45.41702401,92.22813036,58.67002573
45.41198542,92.24989280,58.66112779
45.42527873,92.29256003,58.71129931
45.41112779,92.33908662,58.73852916
45.37639365,92.37317753,58.73981561
45.23820755,92.23970840,58.63121784
45.07193396,91.98488422,58.45808319
45.11181389,91.83136792,58.38797170
45.15962693,91.65705403,58.38840051
45.22062607,91.60784734,58.36599485
45.28966552,91.57397084,58.36578045
45.31828902,91.48231132,58.34058748
45.34980703,91.43857204,58.32493568
45.38797170,91.40662521,58.34058748
45.44725557,91.35891938,58.35355918
45.45647513,91.31818182,58.36170669
45.45668954,91.28644940,58.32975986
45.48006003,91.25643225,58.31861063
45.51618782,91.26104202,58.34273156
45.53923671,91.28859348,58.41316467
45.56421527,91.30135077,58.37982419
45.61074185,91.32707976,58.39890652
45.62832333,91.37060463,58.43085334
45.61695969,91.39333190,58.43514151
45.61695969,91.43621355,58.41863208
45.60345197,91.46708834,58.36074185
45.63025300,91.50782590,58.39719125
45.63003859,91.56978988,58.43149657
45.62553602,91.59251715,58.43557033
45.63089623,91.64847770,58.47244854
45.61942539,91.70390223,58.52036878
45.66852487,91.76586621,58.58018868
45.66305746,91.82364923,58.60237993
45.56560892,91.79867067,58.52444254
45.29845626,91.59176672,58.35613208
45.24914237,91.35827616,58.22362779
45.28977273,91.27026158,58.21665952
45.33276158,91.21033448,58.24399657
45.38754288,91.19157376,58.23659949
45.41530875,91.14236707,58.25686106
45.43256861,91.09273156,58.21344340
45.48349057,91.06689537,58.20540309
45.49131647,91.06292882,58.21665952
45.51897513,91.06185678,58.20422384
45.53462693,91.05306604,58.21237136
45.54384648,91.04663379,58.25332333
45.56003431,91.05810463,58.23241852
45.57858062,91.06335763,58.25911235
45.60313036,91.11921098,58.29524014
45.62296312,91.14526158,58.31335763
45.64590480,91.19350343,58.33436964
45.66884648,91.23059605,58.30156518
45.65780446,91.29202401,58.34326758
45.63561321,91.34637650,58.35924099
45.63411235,91.38304031,58.40598199
45.63496998,91.46001286,58.45915523
45.59648370,91.52701544,58.38357633
45.61159949,91.54534734,58.42249142
45.61642367,91.60141509,58.50900515
45.62424957,91.65340909,58.50375214
45.64633362,91.73059605,58.56207118
45.62146226,91.77154803,58.55177959
45.63604202,91.84123070,58.59187393
45.55767581,91.84326758,58.57975986
45.27337050,91.64944254,58.40566038
45.15533877,91.48252573,58.30328045
45.18396226,91.43632075,58.26479417
45.28033877,91.43514151,58.28698542
45.33126072,91.46012007,58.34155232
45.34273156,91.42292024,58.29599057
45.33051029,91.42720840,58.29320326
45.35002144,91.40962693,58.21065609
45.34594768,91.42334906,58.29041595
45.35763293,91.41809605,58.33126072
45.38464837,91.41016295,58.32975986
45.37735849,91.42731561,58.34176672
45.39622642,91.43138937,58.34691252
45.40426672,91.50182247,58.41177101
45.44275300,91.54138079,58.40351630
45.44414666,91.57536449,58.37768010
45.45218696,91.61942539,58.42624357
45.44779160,91.67870926,58.45851201
45.43235420,91.71665952,58.46172813
45.44768439,91.76007719,58.51222127
45.44993568,91.79856346,58.52369211
45.43632075,91.86213551,58.48563465
45.43921527,91.92956690,58.54684820
45.41530875,91.98006003,58.56946827
45.43878645,92.01811750,58.58565609
45.45111492,92.08447684,58.59905660
45.47062607,92.17924528,58.67131218
45.45111492,92.20797599,58.67431389
45.44018010,92.26393654,58.68589194
45.35988422,92.30885506,58.69886364
45.16102058,92.15887650,58.55060034
45.03741424,92.00139365,58.39847770
45.08512007,91.98370497,58.41487993
45.14247427,92.00761149,58.46966123
45.17399228,92.01618782,58.47695111
45.18439108,92.01500858,58.47534305
45.22287736,92.03612779,58.50310892
45.23874357,92.05349485,58.55692539
45.23220412,92.07096913,58.55681818
45.21258576,92.07000429,58.51125643
45.19082333,92.04952830,58.53130360
45.21483705,92.06067753,58.50171527
45.24271012,92.09777015,58.57718696
45.28527015,92.13818611,58.60881218
45.29459691,92.20497427,58.65051458
45.29481132,92.26693825,58.67881647
45.33361921,92.31432247,58.71976844
45.34048027,92.34884220,58.74013722
45.33394082,92.42570755,58.78998714
45.32858062,92.47609348,58.75589623
45.30628216,92.49860635,58.75310892
45.30070755,92.54942110,58.77390652
45.29020154,92.56700257,58.79063036
45.30553173,92.62971698,58.82825901
45.27122642,92.70283019,58.80896226
45.28527015,92.74774871,58.79170240
45.28162521,92.80478130,58.86074185
45.29716981,92.86492281,58.95025729
45.18021012,92.89033019,58.86374357
44.94500429,92.68814322,58.67699400
44.89247427,92.60066467,58.64397513
44.93331904,92.59884220,58.69489708
44.97523585,92.61331475,58.68878645
45.02101201,92.64901372,58.72855918
45.06282161,92.65866209,58.77551458
45.10270154,92.69939966,58.75707547
45.09852058,92.72866638,58.79363208
45.09037307,92.76340051,58.82021870
45.05295883,92.76586621,58.73692110
45.05242281,92.75396655,58.77111921
45.07364923,92.75289451,58.77369211
45.09476844,92.79438250,58.81410806
45.13304031,92.85816895,58.86738851
45.13689966,92.89890652,58.86631647
45.15566038,92.95004288,58.89601201
45.15405232,92.98895798,58.86052744
45.14301029,93.03087479,58.90480274
45.14011578,93.08587050,58.95679674
45.13036021,93.11449400,58.89987136
45.13689966,93.13496998,58.89397513
45.12349914,93.18932247,58.92216981
45.12628645,93.22727273,58.98113208
45.11792453,93.28344768,58.98906518
45.15469554,93.36095626,59.03784305
45.14922813,93.38336192,59.04867067
45.03076758,93.46451544,59.05928388
44.90469554,93.28741424,58.87810892
44.74817753,93.14869211,58.75911235
44.75739708,93.12575043,58.80692539
44.77958834,93.13657804,58.83490566
44.82933105,93.16702401,58.84305317
44.86095626,93.20272298,58.86738851
44.90919811,93.19950686,58.89075901
44.91144940,93.21397942,58.91423671
44.88089623,93.23166810,58.87017581
44.88454117,93.24367496,58.88325472
44.88036021,93.24442539,58.92131218
44.89558319,93.25471698,58.92860206
44.91477273,93.29792024,58.94586192
44.90812607,93.33436964,58.98531304
44.93246141,93.36492281,58.95368782
44.95593911,93.38368353,58.98831475
44.96548027,93.42602916,58.99013722
44.96891081,93.48241852,58.98156089
44.96269297,93.52722985,59.06110635
44.95754717,93.56196398,59.04138079
44.95358062,93.57429245,59.08415523
44.93589194,93.61320755,59.08340480
44.92710120,93.66530875,59.07804460
44.90984134,93.74045883,59.11781732
44.94210978,93.77315609,59.13078902
44.94950686,93.82107633,59.19822041
44.92656518,93.86117067,59.21837479
44.89429674,93.86685249,59.14493997
44.61063465,93.71440823,59.02722985
44.48863636,93.58447684,58.82954545
44.49678388,93.51543739,58.90458834
44.54759863,93.54138079,58.95283019
44.59455403,93.55403087,58.94661235
44.62071184,93.54609777,58.95819039
44.63464837,93.57568611,58.95840480
44.65019297,93.55199400,58.92935249
44.67324185,93.57847341,58.93396226
44.68192539,93.58629931,58.96344340
44.69093053,93.57986707,58.96301458
44.67913808,93.58179674,58.98681389
44.68428388,93.58994425,58.94114494
44.73574185,93.63882933,59.04984991
44.76029160,93.66895369,59.06646655
44.78076758,93.69757719,59.08951544
44.78398370,93.72909520,59.04620497
44.76854631,93.75718268,59.07836621
44.78677101,93.80113636,59.12725129
44.77369211,93.83179674,59.09165952
44.77294168,93.85398799,59.11470840
44.74967839,93.89762007,59.14762007
44.78548456,93.93728559,59.17806604
44.80392367,93.97309177,59.21837479
44.80231561,94.03237564,59.21526587
44.80349485,94.07579331,59.19886364
44.76082762,94.11653087,59.24581904
44.79652659,94.17538593,59.26072041
44.78430532,94.17131218,59.24163808
44.70733276,94.17109777,59.22277015
44.40748285,93.99410377,59.07193396
44.31217839,93.86385077,58.92988851
44.32054031,93.83018868,58.97062607
44.39354631,93.81207118,58.97373499
44.42259863,93.83490566,59.01993997
44.42227702,93.83822899,59.02798027
44.45336621,93.82343482,59.01211407
44.47341338,93.82161235,59.06410806
44.50128645,93.83297599,59.04781304
44.49324614,93.83243997,59.03612779
44.51072041,93.83447684,59.06689537
44.52197684,93.83115352,59.07858062
44.51179245,93.80660377,59.03752144
44.56464408,93.85066467,59.05585334
44.58351201,93.88153945,59.03419811
44.61674528,93.93364065,59.12725129
44.62028302,93.96076329,59.12521441
44.64000858,94.00257290,59.15887650
44.61588765,94.03098199,59.14590480
44.63068182,94.05992710,59.15748285
44.59905660,94.10613208,59.15480274
44.62392796,94.14236707,59.17109777
44.61288593,94.17292024,59.17527873
44.63968696,94.21966123,59.24731990
44.64483276,94.26125643,59.22094768
44.65426672,94.33565609,59.24217410
44.65898370,94.37296312,59.32150515
44.63432676,94.40255146,59.30349485
44.67527873,94.45915523,59.34123070
44.66873928,94.51157804,59.34905660
44.60420240,94.51436535,59.32675815
44.31818182,94.33083190,59.12950257
44.20090051,94.21505146,59.04030875
44.18921527,94.15962693,59.04277444
44.26447256,94.17399228,59.08458405
44.31432247,94.17881647,59.13228988
44.34144511,94.20636792,59.13818611
44.33297599,94.21548027,59.15373070
44.34476844,94.20090051,59.13572041
44.39183105,94.22480703,59.17056175
44.37714408,94.24914237,59.20261578
44.36588765,94.23059605,59.18642796
44.35977702,94.22620069,59.12285592
44.39504717,94.25653945,59.18664237
44.41016295,94.26993997,59.21290738
44.45883362,94.30917667,59.25578902
44.48638508,94.36695969,59.22737993
44.48713551,94.41380789,59.27830189
44.50278731,94.44446827,59.30060034
44.49785592,94.47941681,59.31217839
44.48284734,94.49335334,59.32654374
44.50364494,94.54331046,59.37500000
44.51736707,94.55960549,59.40694683
44.51972556,94.59884220,59.38743568
44.51650943,94.64987136,59.38014580
44.49764151,94.69489708,59.37414237
44.51468696,94.74539022,59.42484991
44.49367496,94.79084477,59.41219983
44.52776587,94.84809177,59.47566467
44.51725986,94.88475557,59.44414666
44.51147084,94.93599914,59.47244854
44.33243997,94.82836621,59.37146226
44.11974700,94.65212264,59.21430103
44.10677530,94.60677530,59.20197256
44.13979417,94.62028302,59.25857633
44.19875643,94.64665523,59.27787307
44.24088765,94.67270583,59.33201115
44.25203688,94.69157376,59.29792024
44.25889794,94.70057890,59.34980703
44.28795026,94.72684391,59.36578045
44.27583619,94.75568182,59.34401801
44.26683105,94.74067324,59.31550172
44.27154803,94.73702830,59.31807461
44.26629503,94.74313894,59.34455403
44.29792024,94.77476415,59.38689966
44.33254717,94.81046312,59.40951973
44.36063465,94.85891938,59.41423671
44.37006861,94.88293310,59.43417667
44.38218268,94.93664237,59.43492710
44.35924099,94.97309177,59.46901801
44.37017581,94.99367496,59.51961835
44.34991424,95.02315609,59.48627787
44.37682247,95.04406089,59.50739708
44.37349914,95.05789022,59.48777873
44.36395798,95.10087907,59.49131647
44.35881218,95.13496998,59.50460978
44.37210549,95.17677959,59.54534734
44.38807890,95.22963122,59.54609777
44.40555317,95.26147084,59.59551887
44.35398799,95.29266724,59.57697256
44.15083619,95.14376072,59.41820326
44.01993997,95.02165523,59.32611492
43.99624786,94.99431818,59.30885506
44.03741424,95.01168525,59.32986707
44.12403516,95.01897513,59.41027015
44.13775729,95.01318611,59.37746569
44.13443396,95.01307890,59.38057461
44.18567753,95.03709262,59.43889365
44.20272298,95.05778302,59.41756003
44.18406947,95.03548456,59.41241424
44.17259863,95.01265009,59.43396226
44.16991852,95.00289451,59.43921527
44.18975129,95.02101201,59.44318182
44.23627787,95.07118353,59.47491424
44.25975557,95.08737136,59.46580189
44.25439537,95.11117067,59.44478988
44.26039880,95.13175386,59.49067324
44.28484134,95.16841767,59.48638508
44.29995712,95.20904803,59.52701544
44.29331046,95.22126930,59.52229846
44.28805746,95.24303173,59.51490137
44.28516295,95.26286449,59.54674099
44.28612779,95.31078473,59.56228559
44.28816467,95.32654374,59.60055746
44.30403087,95.38893654,59.62435678
44.30821184,95.40876930,59.61974700
44.33201115,95.43921527,59.64204545
44.24731990,95.41412950,59.54341767
43.99153087,95.20293739,59.39526158
43.90030017,95.03087479,59.30981990
43.92570755,95.00675386,59.35666810
43.98659949,94.99003002,59.34251715
44.06185678,94.97866638,59.38668525
44.09509005,94.94328902,59.35173671
44.10688250,94.91412950,59.34551887
44.12532161,94.87231990,59.36610206
44.13132504,94.87296312,59.36974700
44.14837050,94.80681818,59.32354202
44.17506432,94.79620497,59.36352916
44.16434391,94.77476415,59.35666810
44.20368782,94.78473413,59.36792453
44.21183533,94.79609777,59.34026587
44.27144082,94.80424528,59.39258148
44.29105918,94.81314322,59.44929245
44.31357204,94.83801458,59.44543310
44.32472127,94.84165952,59.41970412
44.33297599,94.86149228,59.41402230
44.32665094,94.87296312,59.44822041
44.34208834,94.87789451,59.44607633
44.34380360,94.89204545,59.45743997
44.34251715,94.93364065,59.47759434
44.34069468,94.94875643,59.45776158
44.36256432,94.98091767,59.48048885
44.36438679,95.01683105,59.49946398
44.40394511,95.05617496,59.51479417
44.39601201,95.07783019,59.53409091
44.18750000,94.90512436,59.37575043
43.97244854,94.71451544,59.18707118
43.99260292,94.59830617,59.14161664
44.06828902,94.52347770,59.16327187
44.14676244,94.49710549,59.20293739
44.16359348,94.47169811,59.21848199
44.19307461,94.42913808,59.18364065
44.22791595,94.33533448,59.18160377
44.24935678,94.32568611,59.18353345
44.28484134,94.28762864,59.22094768
44.30842624,94.23702830,59.17592196
44.32568611,94.21590909,59.15394511
44.35162950,94.18138937,59.14944254
44.37478559,94.15330189,59.13036021
44.44039451,94.20240137,59.15737564
44.46548027,94.19768439,59.21933962
44.47620069,94.23048885,59.25192967
44.50525300,94.25075043,59.30713979
44.51168525,94.29834906,59.25782590
44.49410377,94.29470412,59.28291166
44.48874357,94.32965266,59.31528731
44.49324614,94.32515009,59.30135077
44.47973842,94.35559605,59.24067324
44.49849914,94.37564322,59.30789022
44.52069039,94.39697684,59.32515009
44.53323328,94.44575472,59.30981990
44.52776587,94.46515866,59.34959262
44.56228559,94.50503859,59.37703688
44.55617496,94.57268439,59.35956261
44.52615780,94.55767581,59.34433962
44.27251286,94.36149228,59.16230703
44.14547599,94.16069897,59.11052744
44.13357633,94.08104631,59.08104631
44.21258576,94.04856346,59.04148799
44.27883791,94.03677101,59.08930103
44.32257719,93.99603345,59.16262864
44.33790738,93.96397942,59.09262436
44.38346913,93.92077616,59.09187393
44.42452830,93.89086621,59.07204117
44.42216981,93.86728130,59.03173242
44.41498714,93.81914666,59.04170240
44.43353345,93.80445969,59.02744425
44.47041166,93.80746141,59.12843053
44.46033448,93.79116638,59.02337050
44.50203688,93.83394082,59.03591338
44.55038593,93.86234991,59.09862779
44.57054031,93.89622642,59.13679245
44.54770583,93.92227702,59.14890652
44.57890223,93.96783877,59.16788165
44.54974271,93.98113208,59.12071184
44.55660377,93.98370497,59.19168096
44.54513293,94.01082762,59.14547599
44.54963551,94.04341767,59.16155660
44.55360206,94.07204117,59.17538593
44.54256003,94.09766295,59.17442110
44.53280446,94.12821612,59.20433105
44.56325043,94.19596913,59.24849914
44.56507290,94.23788593,59.27197684
44.60398799,94.29738422,59.31282161
44.52605060,94.28912950,59.24024443
44.28291166,94.10409520,59.09852058
44.19275300,93.89365352,59.01372213
44.23123928,93.86610206,59.03205403
44.28741424,93.84873499,59.00353774
44.33404803,93.85162950,59.01243568
44.36385077,93.83319039,59.07761578
44.37006861,93.82032590,59.03001715
44.40383791,93.81571612,59.04749142
44.41445111,93.81496569,59.05360206
44.40137221,93.80295883,59.01415094
44.41873928,93.77808748,58.97169811
44.41702401,93.76908233,59.02379931
44.44232419,93.74978559,59.01372213
44.46740995,93.77465695,59.07397084
44.46891081,93.82246998,58.99099485
44.48670669,93.85034305,59.06432247
44.48198971,93.85055746,59.08962264
44.51297170,93.88432676,59.04170240
44.51254288,93.88754288,59.10430961
44.51983276,93.96751715,59.12124786
44.53076758,93.99131647,59.10731132
44.48627787,94.00643225,59.14515437
44.52369211,94.01533019,59.13432676
44.51768868,94.05306604,59.19500429
44.50525300,94.10323756,59.18213979
44.52637221,94.11792453,59.20754717
44.53527015,94.18063894,59.24431818
44.52862350,94.22673671,59.27519297
44.45797599,94.22405660,59.19854202
44.20733276,94.02422813,59.08340480
44.17066895,93.87692967,58.93910806
44.20486707,93.82750858,59.00096484
44.25418096,93.82686535,59.01018439
44.32139794,93.83233276,59.04095197
44.36878216,93.83447684,59.00943396
44.39922813,93.82675815,59.05831904
44.41831046,93.87006861,59.06796741
44.38829331,93.83940823,59.05703259
44.37821612,93.79266724,59.03237564
44.38861492,93.76147084,59.05006432
44.41134220,93.75482419,59.02090480
44.42945969,93.75836192,59.02487136
44.46912521,93.81625214,59.05960549
44.47384220,93.81625214,59.06753859
44.49313894,93.82675815,59.08147513
44.46601630,93.87768010,59.02626501
44.48799314,93.90180103,59.14343911
44.47234134,93.91166381,59.09498285
44.48413379,93.96119211,59.11020583
44.50493139,93.97512864,59.09755575
44.48810034,94.00396655,59.15576758
44.50139365,94.02069039,59.13346913
44.48831475,94.05563894,59.14054460
44.49217410,94.09744854,59.19414666
44.50804031,94.16884648,59.18835763
44.49710549,94.18578473,59.20636792
44.41520154,94.14633362,59.21623070
44.16016295,93.92517153,59.01736707
44.09219554,93.73970840,58.93739280
44.17677959,93.67592196,58.95615352
44.25836192,93.63915094,58.92645798
44.33029588,93.63518439,58.93878645
44.37328473,93.60956261,58.97984563
44.42013293,93.56743139,58.97652230
44.41466552,93.49163808,58.94554031
44.45250858,93.49174528,58.95015009
44.44168096,93.44103774,58.93096055
44.45658233,93.41069897,58.86867496
44.47759434,93.37703688,58.89590480
44.48531304,93.39590480,58.91948971
44.53194683,93.40694683,58.94253859
44.54256003,93.41434391,58.91327187
44.56142796,93.42334906,58.95743997
44.58512007,93.45819039,58.94832762
44.57590051,93.45347341,58.93696398
44.58994425,93.48531304,58.93514151
44.57246998,93.51393654,58.90480274
44.59669811,93.53666381,58.96290738
44.61663808,93.56346484,59.04459691
44.60999142,93.57740137,59.03945111
44.61749571,93.64279588,59.00321612
44.61545883,93.65791166,59.04213122
44.65973413,93.69832762,59.10570326
44.68664237,93.76125643,59.13111063
44.67184820,93.80906947,59.11760292
44.60849057,93.79331046,59.12564322
44.38915094,93.59734134,58.93460549
44.24699828,93.35377358,58.79438250
44.28719983,93.23831475,58.74903516
44.39193825,93.14794168,58.73949400
44.46408662,93.08051029,58.80242281
44.52101201,93.02851630,58.75364494
44.56067753,92.95904803,58.76072041
44.59262436,92.92645798,58.73263293
44.62210549,92.89418954,58.73166810
44.64783448,92.83072470,58.68106775
44.67377787,92.79577616,58.72909520
44.67806604,92.73960120,58.71044168
44.68331904,92.72019726,58.69811321
44.73574185,92.71365780,58.69993568
44.76511578,92.71837479,58.70486707
44.79984991,92.72502144,58.69221698
44.82032590,92.73391938,58.72341338
44.83715695,92.77197684,58.76425815
44.82289880,92.78430532,58.73713551
44.83404803,92.81239280,58.75450257
44.83983705,92.84476844,58.78344768
44.80338765,92.85891938,58.73370497
44.83780017,92.88046741,58.77111921
44.84626930,92.92174099,58.79609777
44.87199828,92.95025729,58.82439966
44.89654803,92.99731990,58.90619640
44.88711407,93.06185678,58.87896655
44.91166381,93.09712693,58.92131218
44.89022298,93.13979417,58.92903087
44.88572041,93.19532590,58.90737564
44.86524443,93.19950686,58.89804889
44.55478130,92.98488422,58.73788593
44.45036449,92.70336621,58.55499571
44.50385935,92.56518010,58.53516295
44.60881218,92.48552744,58.56828902
44.66573756,92.46333619,58.57804460
44.70090051,92.41209262,58.52894511
44.76297170,92.36738851,58.49903516
44.80499571,92.32043310,58.50653945
44.81914666,92.30499571,58.50739708
44.84551887,92.25396655,58.51232847
44.85988422,92.22502144,58.52776587
44.87928816,92.18953688,58.52937393
44.89697684,92.15555317,58.51661664
44.94768439,92.16016295,58.50557461
44.97298456,92.17602916,58.53859348
44.98231132,92.21172813,58.52454974
44.97813036,92.22727273,58.55939108
44.98842196,92.26329331,58.60484563
44.99721269,92.28859348,58.58126072
44.99056604,92.30767581,58.58747856
45.01307890,92.32761578,58.60120069
44.95936964,92.40340909,58.63111063
45.00010720,92.44671955,58.67806604
45.02337050,92.50107204,58.69918525
45.04920669,92.53998714,58.67592196
45.03623499,92.57804460,58.70626072
45.05713979,92.64097341,58.72223413
45.02605060,92.68750000,58.76125643
45.05842624,92.72888079,58.81185678
45.08115352,92.81185678,58.84894940
45.00343053,92.81518010,58.82890223
44.70786878,92.58930103,58.55671098
44.63454117,92.34959262,58.44264580
44.70861921,92.21290738,58.44746998
44.79588336,92.18181818,58.46247856
44.88904374,92.15769726,58.45272298
44.91016295,92.14944254,58.46655232
44.95904803,92.13507719,58.53237564
44.96923242,92.11138508,58.47802316
44.96376501,92.09455403,58.50278731
44.96505146,92.05338765,58.49957118
44.96376501,92.04952830,58.45518868
44.99967839,92.01854631,58.43021012
45.01811750,92.02004717,58.51018439
45.04502573,92.05188679,58.48456261
45.05606775,92.08994425,58.54148799
45.11042024,92.11706690,58.53816467
45.09058748,92.13346913,58.53226844
45.09037307,92.16498714,58.55285163
45.09562607,92.20583190,58.57418525
45.08544168,92.24774871,58.58115352
45.08715695,92.26490137,58.53269726
45.05649657,92.36395798,58.58329760
45.08254717,92.39193825,58.63400515
45.07343482,92.41648799,58.69178816
45.07375643,92.45668954,58.71740995
45.08533448,92.50921955,58.67581475
45.10602487,92.55949828,58.71344340
45.10066467,92.60881218,58.75761149
45.05081475,92.60698971,58.73992281
44.78902230,92.39493997,58.53559177
44.71151372,92.17613636,58.45229417
44.78183962,92.04663379,58.39933533
44.83769297,92.01993997,58.38186106
44.93138937,92.02122642,58.43224700
44.96237136,92.00139365,58.41412950
44.96816038,91.97759434,58.45936964
45.01500858,91.98820755,58.49571184
45.03505575,91.98552744,58.48981561
45.00332333,91.95894082,58.46194254
44.98070326,91.90094340,58.43739280
45.01854631,91.88475557,58.39804889
45.05896226,91.86642367,58.41916810
45.08040309,91.90930532,58.49892796
45.11117067,91.94671955,58.50804031
45.12221269,91.95197256,58.48198971
45.14729846,91.99163808,58.52508576
45.12628645,92.03752144,58.54609777
45.11813894,92.06968268,58.50300172
45.13925815,92.12789451,58.52948113
45.14601201,92.17924528,58.57482847
45.13046741,92.21172813,58.56442967
45.14472556,92.25771870,58.54459691
45.13379074,92.34090909,58.60591767
45.14719125,92.35452401,58.64740566
45.15362350,92.38625643,58.69757719
45.14043739,92.44168096,58.59283877
45.14912093,92.51232847,58.67785163
45.10463122,92.54652659,58.69811321
44.87039022,92.36181389,58.55842624
44.74731990,92.08093911,58.39054460
44.78055317,91.92527873,58.31914666
44.85473842,91.87039022,58.33458405
44.93171098,91.82021870,58.33222556
44.98960120,91.78784305,58.38111063
44.97791595,91.73799314,58.36363636
45.02637221,91.70647513,58.30574614
45.05456690,91.68792882,58.35066467
45.06046312,91.66080617,58.35248714
45.08147513,91.60570326,58.35720412
45.07654374,91.57954545,58.32118353
45.12199828,91.59198113,58.29931389
45.13614923,91.58876501,58.30124357
45.15898370,91.62424957,58.35409520
45.18192539,91.63432676,58.37853774
45.18932247,91.65759005,58.42517153
45.19114494,91.70400943,58.40855489
45.20240137,91.71998285,58.40673242
45.21483705,91.75836192,58.47169811
45.21783877,91.80960549,58.46869640
45.21708834,91.85859777,58.43921527
45.20122213,91.90126501,58.45829760
45.20025729,91.96076329,58.49871355
45.22244854,92.03376930,58.57214837
45.17163379,92.10280875,58.51533019
45.18406947,92.12446398,58.56464408
45.21108491,92.17613636,58.60666810
45.24078045,92.24871355,58.65630360
45.22888079,92.29341767,58.66520154
45.12585763,92.25321612,58.57590051
44.85709691,91.99174528,58.30456690
44.79824185,91.76350772,58.26393654
44.86760292,91.67806604,58.26340051
44.94489708,91.63293310,58.31003431
45.00943396,91.59927101,58.31989708
45.01672384,91.56646655,58.30145798
45.03194683,91.49742710,58.25128645
45.06775300,91.47298456,58.23906518
45.10441681,91.46333619,58.27658662
45.12017581,91.44178816,58.28977273
45.11352916,91.40105060,58.19564751
45.13271870,91.37135506,58.22277015
45.15426672,91.39697684,58.28827187
45.17292024,91.39826329,58.29470412
45.22148370,91.42495712,58.28409091
45.24721269,91.46076329,58.27958834
45.28762864,91.55799743,58.38582762
45.27433533,91.57150515,58.39033019
45.25964837,91.58962264,58.38379074
45.26768868,91.63046741,58.42334906
45.28066038,91.68996569,58.43739280
45.26543739,91.72898799,58.41445111
45.26618782,91.76318611,58.44093053
45.24442539,91.81410806,58.50686106
45.27090480,91.87768010,58.47330617
45.24099485,91.98627787,58.50600343
45.23359777,92.01361492,58.52969554
45.28966552,92.07675815,58.57397084
45.26951115,92.14965695,58.61020583
45.26672384,92.20004288,58.62264151
45.20207976,92.18814322,58.61867496
44.95379503,91.97416381,58.42956690
44.89129503,91.79609777,58.24592624
44.90737564,91.69639794,58.25407376
45.00450257,91.66659520,58.30274443
45.05692539,91.66069897,58.30906947
45.09262436,91.64301029,58.26693825
45.09991424,91.61813894,58.33126072
45.12746569,91.62918096,58.35666810
45.14097341,91.62060463,58.37960978
45.14644082,91.60570326,58.32654374
45.14150943,91.59412521,58.32332762
45.11878216,91.53151801,58.28066038
45.15437393,91.52830189,58.30167238
45.19736278,91.57000429,58.33908662
45.21612350,91.60291595,58.35463122
45.22566467,91.64311750,58.38732847
45.24892796,91.68374786,58.40737564
45.26693825,91.75493139,58.47362779
45.29245283,91.80038593,58.50214408
45.25343053,91.80874786,58.47855918
45.25182247,91.84959262,58.48231132
45.26940395,91.88325472,58.49217410
45.25160806,91.91713122,58.53334048
45.25868353,91.96044168,58.54877787
45.26715266,92.03966552,58.62328473
45.21805317,92.08940823,58.54180961
45.23831475,92.13389794,58.61159949
45.25750429,92.19232419,58.60720412
45.24356775,92.25793310,58.63078902
45.15951973,92.22191252,58.56882504
44.96301458,92.02219125,58.41498714
44.88786449,91.83361921,58.33490566
44.94210978,91.78859348,58.32654374
45.01361492,91.77219125,58.34401801
45.08136792,91.77304889,58.38496998
45.10227273,91.77487136,58.38507719
45.11653087,91.77026158,58.39483276
45.13904374,91.77605060,58.40019297
45.15791166,91.76297170,58.38604202
45.13904374,91.74989280,58.35945540
45.13346913,91.74088765,58.36824614
45.16423671,91.74485420,58.37650086
45.17806604,91.74453259,58.37789451
45.21783877,91.80767581,58.43481990
45.24442539,91.83919383,58.45883362
45.24731990,91.88432676,58.42592196
45.27519297,91.89011578,58.46194254
45.28248285,91.93750000,58.49624786
45.28023156,91.99120926,58.54566895
45.24324614,92.01961835,58.54534734
45.28248285,92.07429245,58.61931818
45.29395369,92.12564322,58.57654374
45.29588336,92.17174099,58.60506003
45.28194683,92.21226415,58.66509434
45.28376930,92.25439537,58.68557033
45.30789022,92.32461407,58.70154374
45.24882075,92.37896655,58.64676244
45.24656947,92.39901372,58.69189537
45.04824185,92.31968268,58.53409091
44.89118782,92.06314322,58.40426672
44.88228988,91.93717839,58.35162950
44.95315180,91.88153945,58.40062178
45.02272727,91.86149228,58.38636364
45.06400086,91.83801458,58.39697684
45.07429245,91.82021870,58.42763722
45.09659091,91.78784305,58.40619640
45.12853774,91.78205403,58.40255146
45.13100343,91.77851630,58.39837050
45.15501715,91.73649228,58.36792453
45.15930532,91.69618353,58.34884220
45.18203259,91.70283019,58.37821612
45.20926244,91.70283019,58.40094340
45.22298456,91.75621784,58.40673242
45.25793310,91.78730703,58.44746998
45.28205403,91.81657376,58.49967839
45.28612779,91.85259434,58.51232847
45.28226844,91.90490995,58.50782590
45.29384648,91.94264580,58.53998714
45.31668096,91.96612350,58.51908233
45.32171955,91.99731990,58.49903516
45.30360206,92.02015437,58.50150086
45.30864065,92.08415523,58.56099914
45.30981990,92.14493997,58.62864494
45.28527015,92.20015009,58.62682247
45.30724700,92.25600343,58.61749571
45.30102916,92.31668096,58.65544597
45.31839623,92.35441681,58.65930532
45.28591338,92.40469554,58.67870926
45.21794597,92.38196827,58.69093053
44.99024443,92.16541595,58.47201973
44.91873928,91.95497427,58.28623499
44.94275300,91.86963979,58.34819897
45.05403087,91.83512007,58.34819897
45.10934820,91.80810463,58.35291595
45.11942539,91.77315609,58.37821612
45.12993139,91.71891081,58.36234991
45.19436106,91.69436106,58.36031304
45.22223413,91.64590480,58.31914666
45.23810034,91.64247427,58.32729417
45.24667667,91.62532161,58.37017581
45.23734991,91.60120069,58.37907376
45.26533019,91.59466123,58.37382075
45.29599057,91.58651372,58.36974700
45.34991424,91.61342196,58.37156947
45.37231990,91.63475557,58.44607633
45.37960978,91.68921527,58.46344340
45.39772727,91.72169811,58.44018010
45.40555317,91.76854631,58.45743997
45.42635077,91.82815180,58.51661664
45.40726844,91.84058748,58.49410377
45.40137221,91.87821612,58.52594340
45.42527873,91.89676244,58.55370926
45.41380789,91.94232419,58.53623499
45.43674957,92.00964837,58.61535163
45.42313465,92.05628216,58.56807461
45.45004288,92.09841338,58.59283877
45.44800600,92.17592196,58.67399228
45.45765437,92.23724271,58.66691681
45.45143654,92.31078473,58.63604202
45.44403945,92.34090909,58.66209262
45.18835763,92.17656518,58.46365780
45.00825472,91.96108491,58.39333190
45.01972556,91.83640652,58.34391081
45.10720412,91.79652659,58.35999142
45.18106775,91.76318611,58.36374357
45.20883362,91.73477702,58.40158662
45.23306175,91.68331904,58.38829331
45.24410377,91.65233705,58.38990137
45.28430532,91.60827616,58.34412521
45.30167238,91.61234991,58.31946827
45.32086192,91.59466123,58.35688250
45.34937822,91.54963551,58.34573328
45.34905660,91.55381647,58.38100343
45.39740566,91.56678816,58.36974700
45.43053173,91.58897942,58.38529160
45.43406947,91.61781732,58.43428388
45.44457547,91.65791166,58.45165094
45.45497427,91.70647513,58.47362779
45.46923242,91.75225129,58.48209691
45.47823756,91.76147084,58.47995283
45.46719554,91.79738422,58.49978559
45.47920240,91.83983705,58.53837907
45.47973842,91.90147942,58.56507290
45.51940395,91.95057890,58.60816895
45.50557461,91.98241852,58.62671527
45.50686106,92.01693825,58.63379074
45.50460978,92.07922384,58.64097341
45.50385935,92.13979417,58.66037736
45.50621784,92.20111492,58.67581475
45.49539022,92.27776587,58.65255146
45.46537307,92.29063036,58.67227702
45.24110206,92.11438679,58.49453259
45.09380360,91.93964408,58.35130789
45.14376072,91.86781732,58.39933533
45.21194254,91.81978988,58.40362350
45.26747427,91.81099914,58.43449828
45.30145798,91.80295883,58.43396226
45.34605489,91.78752144,58.48670669
45.36234991,91.79952830,58.45604631
45.38068182,91.79813465,58.44886364
45.39033019,91.78484134,58.42720840
45.37081904,91.76254288,58.44243139
45.38850772,91.74978559,58.44961407
45.41702401,91.75728988,58.44961407
45.42431389,91.76200686,58.45926244
45.46237136,91.78119640,58.47802316
45.44843482,91.82643654,58.51854631
45.46794597,91.86074185,58.53698542
45.50889794,91.90748285,58.54706261
45.51983276,91.96451544,58.59487564
45.51200686,91.98006003,58.57225557
45.52026158,92.03677101,58.62939537
45.52722985,92.06067753,58.60570326
45.50503859,92.11567324,58.64418954
45.50578902,92.14772727,58.64708405
45.53870069,92.24860635,58.68814322
45.51554460,92.26747427,58.71172813
45.52069039,92.35173671,58.76554460
45.54674099,92.39043739,58.76029160
45.52315609,92.44210978,58.78902230
45.32322041,92.39697684,58.65405232
45.17088336,92.14965695,58.47298456
45.12392796,92.03902230,58.45004288
45.22845197,91.98123928,58.50160806
45.27755146,91.95872642,58.48745712
45.31464408,91.94543310,58.51039880
45.33522727,91.90984134,58.48402659
45.36963979,91.88936535,58.53151801
45.41477273,91.90169383,58.52111921
45.40651801,91.90437393,58.51865352
45.39183105,91.86610206,58.50889794
45.40319468,91.84530446,58.51318611
45.39944254,91.84090909,58.51200686
45.43149657,91.84230274,58.48574185
45.48499142,91.86470840,58.50900515
45.51425815,91.90791166,58.55821184
45.53902230,91.95111492,58.57311321
45.54502573,92.00128645,58.59584048
45.54502573,92.04095197,58.62843053
45.53859348,92.05917667,58.61771012
45.53323328,92.09519726,58.64129503
45.56432247,92.12950257,58.70283019
45.54802744,92.17259863,58.65801887
45.53344768,92.22941681,58.65330189
45.55735420,92.29599057,58.73724271
45.56646655,92.34927101,58.76908233
45.58351201,92.40448113,58.75396655
45.57772298,92.45336621,58.82086192
45.58458405,92.55263722,58.82129074
45.59219554,92.58683533,58.86192110
45.56024871,92.61921098,58.89515437
45.25203688,92.45165094,58.66348628
45.10849057,92.21912521,58.53194683
45.13872213,92.09841338,58.47748714
45.21762436,92.04459691,58.50857633
45.27079760,92.02915952,58.54245283
45.33201115,91.99860635,58.51447256
45.32525729,91.93760720,58.49421098
45.37221269,91.90373070,58.51865352
45.41187822,91.89215266,58.46140652
45.45593911,91.86481561,58.47051887
45.44146655,91.84605489,58.50600343
45.45057890,91.81121355,58.47673671
45.46097770,91.80467410,58.51350772
45.52433533,91.84080189,58.53719983
45.52883791,91.85966981,58.55049314
45.58201115,91.89054460,58.56335763
45.58479846,91.92592196,58.57707976
45.58726415,91.95861921,58.63593482
45.59530446,91.98702830,58.54277444
45.60656089,92.01929674,58.63529160
45.60270154,92.07975986,58.65180103
45.58458405,92.08844340,58.65769726
45.61192110,92.14343911,58.65115780
45.65351630,92.20197256,58.70347341
45.64440395,92.26082762,58.70036449
45.64515437,92.29459691,58.72748714
45.63893654,92.35570326,58.80102916
45.66402230,92.40651801,58.81239280
45.63829331,92.47384220,58.82204117
45.65598199,92.52519297,58.84830617
45.65812607,92.57750858,58.89762007
45.60109348,92.66455832,58.85838336
45.38850772,92.49163808,58.68975129
45.21204974,92.25728988,58.56239280
45.18953688,92.15694683,58.54309605
45.28891509,92.10538165,58.57536449
45.34433962,92.08447684,58.58126072
45.37371355,92.06818182,58.61020583
45.39022298,91.99678388,58.52615780
45.42066895,91.94618353,58.49892796
45.49603345,91.97094768,58.52862350
45.50578902,91.92924528,58.51758148
45.51307890,91.92388508,58.55853345
45.49753431,91.92249142,58.53291166
45.51940395,91.88990137,58.52583619
45.56153516,91.88314751,58.55124357
45.55724700,91.91252144,58.57697256
45.59069468,91.93460549,58.61899657
45.63389794,91.97587907,58.62296312
45.62006861,91.99957118,58.59648370
45.65362350,92.02497856,58.61717410
45.65512436,92.06378645,58.61717410
45.63904374,92.08072470,58.65598199
45.64408233,92.13700686,58.65008576
45.68267581,92.20947684,58.71012007
45.66841767,92.24903516,58.73509863
45.67259863,92.30724700,58.70261578
45.66477273,92.35966981,58.75225129
45.68782161,92.39987136,58.81796741
45.68321184,92.49153087,58.84251715
45.66198542,92.51768868,58.84187393
45.67013293,92.57686535,58.86545883
45.63379074,92.66230703,58.86556604
45.64118782,92.68728559,58.88175386
45.48220412,92.58876501,58.76801029
45.26929674,92.36084906,58.59305317
45.22319897,92.22255575,58.54459691
45.29502573,92.19532590,58.57054031
45.38014580,92.20754717,58.64794168
45.43846484,92.18782161,58.64279588
45.45304460,92.17924528,58.63036021
45.46483705,92.18632075,58.68181818
45.49045883,92.16841767,58.63025300
45.50632504,92.14054460,58.56593053
45.49195969,92.13368353,58.56807461
45.50568182,92.14290309,58.58115352
45.52937393,92.12006861,58.60784734
45.56239280,92.15930532,58.68782161
45.56893225,92.19929245,58.65147942
45.59026587,92.22898799,58.67281304
45.62489280,92.23445540,58.69886364
45.60870497,92.30295883,58.73649228
45.61310034,92.33436964,58.73081046
45.61588765,92.38947256,58.75268010
45.62371355,92.41380789,58.77379931
45.63657804,92.46226415,58.79180961
45.65619640,92.50032161,58.84466123
45.66616638,92.54802744,58.84262436
45.66756003,92.56099914,58.87875214
45.67677959,92.64547599,58.92313465
45.67881647,92.67367067,58.90351630
45.66563036,92.73252573,58.92677959
45.68728559,92.78484134,58.94114494
45.61020583,92.85463122,58.87242710
45.58372642,92.85795455,58.93128216
45.38743568,92.69661235,58.72362779
45.25739708,92.51533019,58.65919811
45.25460978,92.45122213,58.61031304
45.33758576,92.43621355,58.63840051
45.41005575,92.43278302,58.71966123
45.43825043,92.42967410,58.70947684
45.44822041,92.40769726,58.70422384
45.49324614,92.43535592,58.75611063
45.51082762,92.41327187,58.74882075
45.49731990,92.39740566,58.72137650
45.48424099,92.39054460,58.69972127
45.49399657,92.39686964,58.67710120
45.52326329,92.40298027,58.68921527
45.55210120,92.41209262,58.73627787
45.59509005,92.44243139,58.77176244
45.59541166,92.47641509,58.79502573
45.58769297,92.49120926,58.78323328
45.59916381,92.55992710,58.77540738
45.62274871,92.59830617,58.84766295
45.61567324,92.64762007,58.87960978
45.61974700,92.67013293,58.87768010
45.64150943,92.69789880,58.85377358
45.62660806,92.75975557,58.87382075
45.61138508,92.79513293,58.95358062
45.60441681,92.84283877,58.94982847
45.61556604,92.87435678,58.96376501
45.61921098,92.92988851,59.02186964
45.59894940,92.98745712,59.03484134
45.61524443,93.02690823,59.00954117
45.37242710,92.94511149,58.88593482
45.24088765,92.73231132,58.67806604
45.22180532,92.58286878,58.63668525
45.25289451,92.56614494,58.68449828
45.29202401,92.56603774,58.74442539
45.38829331,92.51629503,58.72813036
45.38443396,92.47598628,58.72469983
45.42184820,92.46966123,58.73166810
45.46912521,92.42238422,58.73927959
45.46204974,92.41509434,58.68953688
45.46976844,92.38121784,58.75192967
45.46237136,92.36245712,58.69393225
45.49967839,92.35152230,58.70872642
45.50042882,92.35677530,58.71698113
45.56903945,92.39622642,58.79824185
45.58501286,92.41520154,58.79448971
45.61760292,92.46108491,58.77004717
45.62671527,92.51243568,58.79524014
45.61320755,92.51157804,58.80874786
45.60087907,92.55821184,58.84852058
45.61460120,92.57943825,58.82665094
45.63507719,92.62950257,58.82482847
45.64954974,92.66348628,58.88496998
45.65062178,92.71751715,58.91927530
45.63550600,92.74421098,58.90201544
45.65662521,92.78098199,58.89890652
45.64676244,92.83179674,58.94693396
45.64354631,92.89054460,58.95015009
45.66048456,92.93449828,58.95894082
45.65030017,92.99635506,59.02101201
45.60452401,93.03226844,59.04148799
45.28945111,92.86363636,58.79716981
45.15533877,92.62596484,58.68192539
45.19393225,92.54256003,58.68900086
45.27851630,92.50879074,58.70754717
45.36009863,92.48938679,58.71065609
45.37585763,92.44511149,58.65458834
45.37703688,92.39783448,58.64569039
45.40405232,92.36417238,58.64633362
45.42474271,92.34798456,58.69982847
45.45304460,92.32868782,58.65030017
45.46848199,92.29352487,58.64644082
45.48606346,92.27229846,58.65973413
45.49335334,92.27508576,58.67388508
45.51522298,92.27744425,58.66745283
45.56625214,92.28580617,58.71355060
45.58104631,92.33126072,58.69854202
45.60098628,92.37285592,58.69511149
45.64140223,92.42763722,58.78141081
45.63250429,92.44811321,58.79223842
45.61974700,92.46022727,58.78998714
45.63175386,92.48659949,58.78076758
45.61524443,92.53612779,58.83136792
45.62446398,92.57386364,58.84080189
45.66219983,92.61567324,58.84358919
45.65705403,92.67570755,58.87489280
45.65287307,92.72019726,58.84283877
45.66102058,92.78066038,58.97341338
45.66605918,92.84530446,58.98874357
45.65598199,92.91219983,58.99839194
45.66402230,92.96119211,58.96548027
45.67656518,93.03505575,58.99646226
45.60688250,93.10816895,59.04170240
45.38722127,92.96505146,58.88550600
45.20540309,92.77551458,58.72405660
45.17935249,92.68492710,58.71387221
45.23638508,92.67163379,58.73145369
45.28752144,92.67324185,58.77122642
45.31539451,92.67216981,58.81196398
45.33801458,92.64954974,58.71601630
45.34734134,92.65437393,58.79566895
45.35409520,92.65298027,58.77133362
45.35731132,92.61738851,58.78741424
45.35355918,92.60827616,58.75857633
45.37853774,92.61052744,58.75653945
45.39569039,92.64418954,58.79920669
45.41198542,92.66820326,58.80478130
45.45668954,92.71290738,58.84005146
45.48434820,92.74485420,58.85527444
45.47909520,92.75632504,58.87167667
45.51479417,92.78259005,58.92131218
45.51329331,92.84969983,58.91723842
45.49614065,92.88936535,58.90244425
45.49817753,92.90641081,58.89633362
45.49839194,92.94693396,58.89633362
45.49303173,93.01297170,58.92849485
45.48466981,93.05006432,58.93171098
45.50203688,93.08801458,58.99410377
45.49506861,93.14536878,58.99356775
45.48220412,93.21569468,59.03644940
45.48906518,93.26479417,59.05596055
45.51404374,93.33093911,59.07236278
45.51265009,93.40351630,59.12714408
45.45722556,93.44414666,59.05006432
45.35066467,93.39376072,58.98338336
45.09326758,93.25921955,58.85398799
45.04309605,93.14815609,58.80081475
45.06925386,93.13915094,58.86234991
45.15212264,93.14611921,58.88539880
45.18900086,93.13282590,58.85945540
45.20057890,93.14183105,58.84959262
45.22609348,93.13947256,58.92892367
45.23370497,93.15008576,58.93546312
45.25257290,93.16530875,58.91766724
45.25192967,93.15737564,58.96569468
45.24807033,93.16316467,58.95668954
45.25396655,93.15469554,58.93385506
45.27476415,93.19071612,58.97759434
45.29459691,93.23970840,58.98777873
45.31593053,93.27626501,58.97480703
45.32697256,93.33833619,59.00707547
45.30435249,93.38368353,59.00546741
45.29223842,93.41252144,59.04802744
45.30328045,93.44436106,59.07943825
45.32118353,93.47598628,59.02894511
45.31828902,93.52390652,59.10688250
45.33126072,93.56710978,59.13186106
45.32943825,93.60666810,59.12532161
45.32279160,93.67377787,59.14075901
45.31153516,93.69596913,59.11277873
45.32021870,93.75739708,59.18792882
45.30006432,93.81035592,59.19671955
45.29888508,93.84240995,59.25600343
45.33211835,93.89172384,59.21548027
45.21280017,93.92870926,59.19028731
44.98606346,93.76136364,59.08018868
44.86138508,93.59423242,58.91756003
44.82461407,93.52894511,58.91895369
44.87832333,93.50246569,58.91348628
44.94157376,93.53291166,58.96858919
44.98048885,93.52958834,58.95776158
44.99549743,93.50021441,58.98391938
44.99431818,93.47459262,58.99967839
45.01350772,93.47169811,58.85891938
45.03398370,93.47352058,58.98960120
45.02390652,93.43707118,58.99989280
45.03655660,93.42377787,58.96430103
45.06239280,93.43674957,58.97298456
45.10581046,93.45808319,59.02540738
45.13068182,93.47630789,59.03655660
45.13968696,93.50010720,59.01447256
45.17216981,93.54352487,59.07182676
45.14536878,93.58490566,59.08211835
45.16359348,93.63850772,59.09626930
45.16895369,93.64622642,59.05853345
45.18653516,93.68632075,59.10398799
45.19478988,93.72759434,59.15298027
45.18921527,93.75653945,59.12575043
45.18557033,93.78762864,59.14997856
45.19639794,93.83083190,59.18138937
45.18589194,93.85527444,59.20368782
45.20497427,93.89944254,59.19275300
45.25621784,93.97727273,59.20604631
45.23048885,94.02144082,59.25750429
45.22105489,94.08554889,59.25385935
45.19929245,94.16284305,59.28119640
45.19789880,94.19382504,59.27465695
44.98617067,94.04148799,59.15490995
44.76061321,93.84509005,58.97802316
44.74678388,93.77680103,58.98520583
44.79438250,93.73542024,58.99035163
44.85623928,93.73595626,58.99817753
44.89311750,93.73531304,59.01125643
44.91370069,93.69907804,59.06099914
44.92099057,93.68707118,59.05842624
44.94939966,93.66873928,59.00793310
44.94339623,93.64301029,59.01865352
44.97191252,93.64408233,59.03259005
44.96998285,93.61921098,59.02830189
44.96612350,93.60999142,59.03344768
45.01972556,93.64365352,59.01500858
45.06507290,93.66691681,59.06035592
45.07632933,93.69854202,59.05831904
45.10441681,93.74035163,59.12607204
45.10538165,93.76640223,59.14354631
45.12467839,93.79963551,59.14611921
45.13786449,93.82332762,59.13400515
45.13143225,93.87650086,59.16831046
45.12628645,93.90373070,59.19018010
45.12264151,93.92881647,59.18246141
45.11395798,93.94907804,59.20422384
45.12264151,93.98627787,59.14193825
45.14343911,94.04759863,59.21719554
45.14097341,94.08994425,59.24731990
45.15244425,94.14601201,59.26865352
45.14290309,94.18900086,59.34680532
45.13207547,94.29288165,59.27294168
45.15201544,94.33276158,59.37349914
45.15490995,94.37189108,59.39311750
45.04663379,94.33865780,59.31035592
44.76082762,94.13496998,59.14654803
44.65641081,94.01661664,59.03527015
44.69618353,93.99249571,59.05424528
44.75664666,93.99035163,59.08683533
44.81646655,93.99142367,59.11663808
44.85012864,93.99078045,59.15930532
44.83629931,93.97802316,59.08994425
44.85731132,93.95701115,59.12424957
44.86331475,93.98852916,59.13518439
44.85109348,93.97973842,59.09423242
44.84862779,93.95668954,59.11706690
44.86256432,93.94789880,59.07225557
44.88582762,93.97030446,59.10774014
44.90812607,93.98445540,59.10924099
44.94972127,94.01211407,59.13475557
44.98960120,94.05092196,59.19264580
44.97094768,94.08372642,59.22051887
44.97298456,94.10248714,59.23885077
44.97770154,94.14579760,59.22770154
44.96676672,94.19468268,59.27980274
44.97555746,94.22019726,59.20111492
44.97823756,94.25225129,59.24496141
44.96215695,94.28998714,59.25825472
44.97394940,94.32943825,59.24324614
45.01050600,94.40244425,59.31239280
44.98113208,94.44832762,59.29266724
44.99474700,94.45615352,59.36588765
44.95572470,94.51725986,59.31871784
45.00246569,94.56635935,59.34616209
44.97255575,94.60227273,59.39043739
44.76704545,94.48466981,59.23767153
44.56024871,94.26157804,59.06346484
44.53494854,94.16638079,59.09198113
44.58115352,94.15512436,59.09208834
44.64762007,94.17034734,59.09358919
44.69650515,94.17399228,59.06786021
44.70100772,94.15147942,59.15962693
44.74099485,94.16573756,59.14987136
44.76522298,94.16316467,59.15287307
44.74110206,94.14183105,59.13990137
44.72566467,94.12639365,59.14376072
44.72855918,94.08662093,59.13379074
44.76200686,94.09948542,59.12178388
44.80746141,94.13572041,59.15994854
44.83704974,94.14879931,59.23413379
44.85581046,94.16820326,59.17720840
44.86234991,94.19789880,59.21376501
44.88068182,94.22094768,59.23402659
44.86931818,94.23831475,59.23188250
44.85806175,94.27122642,59.20004288
44.87392796,94.29159520,59.25214408
44.87993139,94.31839623,59.28451973
44.87660806,94.34509005,59.25203688
44.89215266,94.37607204,59.27808748
44.88957976,94.41981132,59.29288165
44.89601201,94.44682676,59.30531732
44.90608919,94.48499142,59.33790738
44.91037736,94.52358491,59.34626930
44.87960978,94.59251715,59.29320326
44.90598199,94.62853774,59.37789451
44.89011578,94.65105060,59.39097341
44.65458834,94.44811321,59.17367067
44.44125214,94.21933962,59.05188679
44.43750000,94.13025300,59.02133362
44.54116638,94.09412521,59.05124357
44.58222556,94.03848628,59.05649657
44.64225986,93.98810034,59.05563894
44.67259863,93.92602916,59.04245283
44.72512864,93.85977702,59.00771870
44.76189966,93.83908662,58.99517581
44.80553173,93.79223842,58.99592624
44.79674099,93.76243568,58.97384220
44.82729417,93.70851201,58.97223413
44.85259434,93.68514151,58.96987564
44.88711407,93.65555317,58.98574185
44.92195540,93.65351630,58.98177530
44.94907804,93.65941252,59.02583619
44.97813036,93.67174099,59.06518010
45.00150086,93.67131218,59.03516295
45.01457976,93.67774443,59.04824185
45.03902230,93.71269297,59.02980274
45.03183962,93.70272298,59.03891509
45.04427530,93.72051887,59.05628216
45.04373928,93.74828473,59.11513722
45.03870069,93.77347770,59.10602487
45.05810463,93.80617496,59.15523156
45.06818182,93.83983705,59.13014580
45.07032590,93.87585763,59.06539451
45.03484134,93.90726844,59.10688250
45.01072041,93.96483705,59.16016295
45.03784305,94.01275729,59.18385506
45.03130360,94.03237564,59.14343911
44.99539022,94.02926672,59.19093053
44.74903516,93.82707976,58.97930961
44.61234991,93.55746141,58.84219554
44.62189108,93.38389794,58.78848628
44.71923242,93.32536449,58.80113636
44.82204117,93.27894511,58.81625214
44.87285592,93.22577187,58.77337050
44.87660806,93.13668525,58.76404374
44.93589194,93.05081475,58.78795026
44.99356775,93.01629503,58.76093482
45.02240566,92.97545026,58.76597341
45.05746141,92.91423671,58.73113208
45.06121355,92.83372642,58.69050172
45.09744854,92.79813465,58.71258576
45.12875214,92.79105918,58.73295455
45.17099057,92.80521012,58.76725986
45.18331904,92.82011149,58.77873070
45.18878645,92.81743139,58.79063036
45.20390223,92.82568611,58.78880789
45.22148370,92.83447684,58.78923671
45.23466981,92.86545883,58.81442967
45.22266295,92.89011578,58.81893225
45.19789880,92.91080617,58.81753859
45.21162093,92.92002573,58.82096913
45.23992281,92.93932247,58.84519726
45.24271012,92.97384220,58.83211835
45.24281732,92.99517581,58.78998714
45.25868353,93.04320326,58.81978988
45.21483705,93.09841338,58.86449400
45.20390223,93.14622642,58.89065180
45.23960120,93.21301458,58.93085334
45.27765866,93.26415094,58.94661235
45.24817753,93.28291166,58.93878645
45.06003431,93.18481990,58.75793310
44.85827616,92.93996569,58.66016295
44.84391081,92.80596055,58.58211835
44.85774014,92.76382933,58.58415523
44.95969125,92.74399657,58.64558319
45.00268010,92.70872642,58.62339194
45.01061321,92.70722556,58.63861492
45.03344768,92.68825043,58.65137221
45.05349485,92.68171098,58.65598199
45.07783019,92.62457118,58.63443396
45.03698542,92.60902659,58.54727702
45.04599057,92.56936106,58.57515009
45.06839623,92.57161235,58.57397084
45.09680532,92.58822899,58.59852058
45.10891938,92.59819897,58.59198113
45.13925815,92.63647084,58.65362350
45.14826329,92.65769726,58.65619640
45.14933533,92.69950686,58.70615352
45.16273585,92.71097770,58.73799314
45.14794168,92.73520583,58.66509434
45.14526158,92.75996998,58.71708834
45.15158662,92.79845626,58.71119211
45.14933533,92.83265437,58.69135935
45.15212264,92.89526158,58.70679674
45.14751286,92.91209262,58.74914237
45.15523156,92.94811321,58.77444254
45.10570326,93.03987993,58.82847341
45.14150943,93.08254717,58.80081475
45.16509434,93.10891938,58.82096913
45.13186106,93.15180103,58.82525729
45.04384648,93.12189108,58.77390652
44.78591338,92.94243139,58.64140223
44.73134648,92.76457976,58.61578045
44.77026158,92.70336621,58.56786021
44.81786021,92.70143654,58.58436964
44.87500000,92.68653516,58.54309605
44.89365352,92.70604631,58.60205832
44.92592196,92.71494425,58.59273156
44.93342624,92.70272298,58.59852058
44.95915523,92.70486707,58.63475557
44.93975129,92.69682676,58.61127787
44.92088336,92.66295026,58.58747856
44.90683962,92.65126501,58.59187393
44.94135935,92.64676244,58.61996141
44.96762436,92.68160377,58.63357633
45.04727702,92.74774871,58.68878645
45.03548456,92.75439537,58.70443825
45.03698542,92.82043310,58.67506432
45.06400086,92.84080189,58.70122213
45.06893225,92.85409520,58.69264580
45.07515009,92.89697684,58.73938679
45.04245283,92.93846484,58.75793310
45.06593053,92.98617067,58.74431818
45.06046312,93.02186964,58.80060034
45.06743139,93.08072470,58.79577616
45.04095197,93.12714408,58.79738422
45.04609777,93.17860206,58.85784734
45.00053602,93.21858919,58.80135077
45.02262007,93.27176244,58.84744854
45.05906947,93.32193396,58.87210549
45.06067753,93.39129503,58.91659520
44.98274014,93.34273156,58.87296312
44.63175386,93.12253431,58.65834048
44.54298885,92.95400943,58.59766295
44.58887221,92.89097341,58.56593053
44.65298027,92.88346913,58.58608491
44.71644511,92.84316038,58.60709691
44.74571184,92.83855060,58.63765009
44.76457976,92.80038593,58.62285592
44.76500858,92.74699828,58.54352487
44.78580617,92.74335334,58.57332762
44.80563894,92.67785163,58.57300600
44.81346484,92.63957976,58.55403087
44.81507290,92.62875214,58.53226844
44.82772298,92.63239708,58.56893225
44.85934820,92.63014580,58.52144082
44.89922813,92.64815609,58.56475129
44.93792882,92.66284305,58.60581046
44.96998285,92.68803602,58.60720412
44.97352058,92.74003002,58.61610206
45.01833190,92.80499571,58.67463551
44.99013722,92.83897942,58.69789880
44.99967839,92.84980703,58.70250858
44.99571184,92.86963979,58.72041166
44.99003002,92.92549314,58.74710549
45.00996998,92.95593911,58.78334048
45.01801029,92.99614065,58.73820755
45.03580617,93.05896226,58.80638937
44.99292453,93.15394511,58.75707547
44.99313894,93.17495712,58.82289880
45.03237564,93.23777873,58.87457118
45.02798027,93.29534734,58.78505575
45.05435249,93.34852058,58.83522727
45.02937393,93.38979417,58.86234991
44.72855918,93.21869640,58.72105489
44.51811750,93.03441252,58.58844340
44.52958834,92.89515437,58.50879074
44.56603774,92.85034305,58.53902230
44.63550600,92.84198113,58.56775300
44.66080617,92.82118353,58.58254717
44.70433105,92.80553173,58.55874786
44.74431818,92.77776587,58.54406089
44.75653945,92.77583619,58.57750858
44.76768868,92.75182247,58.59037307
44.76608062,92.75578902,58.57075472
44.77980274,92.71762436,58.51650943
44.79481132,92.69682676,58.53987993
44.81689537,92.71955403,58.50235849
44.87114065,92.75621784,58.63529160
44.89301029,92.76951115,58.62821612
44.90276587,92.80242281,58.64397513
44.94157376,92.85666810,58.69371784
44.95004288,92.89772727,58.69811321
44.93953688,92.91359348,58.71076329
44.91948971,92.97888079,58.69779160
44.92731561,92.98091767,58.64193825
44.92613636,93.01468696,58.71751715
44.92099057,93.05606775,58.77883791
44.92431389,93.08812178,58.76372213
44.90834048,93.17506432,58.75611063
44.92945969,93.22212693,58.76865352
44.92281304,93.27272727,58.80381647
44.92056175,93.32793739,58.81764580
44.93653516,93.38829331,58.84691252
44.93063894,93.44200257,58.89504717
44.85538165,93.42999571,58.80006432
44.57161235,93.27208405,58.69961407
44.45143654,93.10752573,58.57707976
44.48542024,93.06475129,58.56496569
44.53548456,93.03462693,58.60195111
44.60430961,93.05413808,58.62124786
44.63625643,93.04534734,58.63454117
44.67184820,93.04684820,58.67978130
44.67795883,93.05703259,58.64751286
44.71312178,93.07697256,58.65716123
44.69028731,93.05735420,58.64311750
44.67088336,93.03087479,58.65501715
44.67828045,93.01940395,58.66520154
44.68642796,93.02219125,58.65490995
44.72223413,93.05585334,58.69093053
44.75214408,93.07868782,58.69575472
44.76790309,93.12575043,58.72566467
44.79813465,93.18385506,58.73917238
44.79877787,93.21280017,58.78784305
44.80231561,93.25171527,58.77422813
44.78259005,93.28108919,58.78666381
44.77905232,93.31828902,58.81400086
44.76886792,93.34905660,58.81646655
44.78591338,93.39376072,58.81164237
44.78226844,93.42849485,58.79942110
44.75739708,93.52647942,58.85452401
44.75428816,93.54566895,58.87264151
44.78677101,93.58436964,58.92484991
44.77090480,93.61074185,58.89890652
44.77508576,93.70025729,58.99785592
44.78248285,93.75482419,58.94028731
44.69039451,93.72641509,58.87500000
44.42517153,93.51072041,58.68289022
44.25546741,93.30713979,58.56378645
44.27497856,93.28741424,58.64418954
44.34541166,93.23520583,58.65780446
44.42238422,93.23799314,58.66981132
44.43685678,93.21837479,58.65319468
44.46644511,93.17013293,58.65469554
44.48338336,93.17120497,58.64976415
44.51404374,93.14140223,58.66027015
44.52508576,93.15780446,58.67860206
44.54213122,93.14954974,58.68342624
44.54738422,93.13057461,58.63078902
44.57311321,93.12671527,58.62349914
44.60774014,93.11695969,58.69243139
44.63111063,93.14869211,58.70465266
44.64997856,93.18149657,58.72073328
44.66638079,93.21397942,58.73584906
44.67742281,93.24431818,58.73960120
44.69468268,93.25750429,58.74442539
44.68964408,93.26340051,58.76533019
44.69478988,93.33051029,58.79041595
44.68782161,93.36406518,58.77465695
44.66080617,93.37757290,58.74678388
44.68042453,93.40855489,58.79684820
44.65062178,93.48466981,58.80392367
44.69114494,93.51575901,58.79020154
44.68642796,93.57300600,58.86052744
44.70154374,93.62349914,58.92667238
44.69725557,93.66595197,58.89343911
44.70947684,93.72298456,58.91680961
44.70175815,93.77680103,58.95604631
44.66745283,93.77401372,58.93996569
44.35591767,93.59305317,58.69746998
44.15801887,93.37028302,58.61792453
44.18192539,93.27519297,58.59509005
44.28237564,93.21740995,58.60741852
44.36663808,93.18610635,58.59884220
44.40469554,93.16048456,58.62060463
44.42259863,93.12307033,58.62564322
44.42495712,93.07654374,58.58919383
44.46322899,93.04127358,58.58222556
44.50300172,93.02208405,58.59048027
44.49496141,92.99731990,58.58351201
44.50460978,92.96194254,58.56314322
44.51672384,92.92731561,58.53923671
44.54942110,92.95508148,58.56014151
44.59519726,92.97598628,58.59562607
44.62971698,92.99935678,58.61234991
44.65030017,93.01286449,58.61192110
44.63904374,93.03655660,58.68471269
44.67024014,93.07139794,58.64815609
44.67313465,93.11695969,58.68728559
44.67484991,93.13282590,58.68235420
44.64225986,93.16498714,58.66134220
44.64354631,93.18642796,58.70100772
44.65351630,93.24549743,58.71140652
44.64987136,93.29481132,58.74549743
44.64097341,93.33758576,58.78741424
44.66713122,93.37017581,58.77776587
44.68460549,93.40094340,58.76286449
44.67302744,93.45947684,58.77015437
44.69135935,93.50632504,58.80563894
44.66970412,93.56828902,58.84680532
44.61427959,93.58361921,58.79952830
44.37296312,93.43942967,58.68385506
44.17077616,93.24045883,58.53912950
44.17870926,93.12596484,58.52304889
44.24045883,93.09208834,58.49346055
44.27197684,93.09015866,58.54856346
44.32590051,93.08190395,58.50943396
44.34176672,93.06968268,58.54609777
44.37403516,93.06850343,58.57665094
44.39065180,93.06796741,58.55060034
44.39751286,93.05681818,58.58276158
44.38475557,93.05435249,58.56550172
44.38786449,93.03537736,58.56560892
44.40909091,93.01029160,58.57246998
44.40737564,93.03516295,58.52744425
44.43385506,93.05521012,58.53291166
44.46794597,93.06635935,58.49496141
44.45979846,93.09530446,58.54213122
44.46140652,93.14172384,58.56239280
44.46140652,93.18010292,58.55960549
44.48949400,93.19318182,58.58876501
44.49045883,93.24882075,58.62060463
44.49592624,93.29674099,58.64772727
44.39729846,93.33662093,58.67602916
44.43396226,93.37435678,58.66616638
44.47234134,93.43160377,58.73027444
44.47480703,93.48531304,58.74067324
44.45465266,93.51790309,58.76554460
44.44361063,93.56260720,58.76286449
44.43096055,93.59969983,58.82332762
44.30102916,93.56453688,58.73027444
44.02755146,93.35366638,58.53183962
43.93760720,93.16573756,58.42388508
43.96966123,93.13325472,58.44929245
44.06850343,93.13775729,58.46665952
44.11009863,93.13089623,58.52390652
44.15030017,93.11363636,58.52615780
44.17420669,93.10988422,58.50182247
44.19361063,93.10763293,58.54545455
44.18728559,93.10323756,58.47030446
44.17892367,93.06400086,58.51297170
44.16380789,93.04674099,58.42602916
44.17152659,93.05081475,58.46204974
44.18031732,93.06367925,58.46655232
44.21708834,93.08908662,58.49217410
44.25825472,93.12146226,58.51640223
44.26586621,93.15630360,58.54802744
44.27990995,93.19736278,58.57000429
44.29159520,93.22770154,58.58747856
44.27626501,93.25653945,58.53548456
44.26189966,93.30992710,58.53591338
44.28291166,93.34573328,58.58844340
44.27798027,93.36009863,58.57279160
44.27272727,93.38722127,58.57804460
44.21344340,93.48917238,58.63282590
44.24710549,93.49967839,58.65469554
44.25600343,93.56346484,58.66273585
44.24388937,93.61074185,58.66927530
44.28248285,93.69028731,58.75932676
44.29309605,93.75857633,58.77937393
44.23606346,93.75793310,58.72105489
43.92463551,93.53141081,58.50675386
43.73027444,93.30210120,58.40737564
43.70540309,93.23220412,58.40630360
43.76854631,93.20293739,58.36824614
43.84155232,93.17838765,58.34648370
43.87146226,93.15876930,58.40319468
43.87317753,93.10816895,58.39826329
43.90383791,93.08865780,58.39547599
43.92216981,93.09133791,58.36084906
43.92527873,93.07064751,58.35881218
43.94350343,93.05413808,58.36503002
43.96258576,93.01940395,58.40941252
43.96247856,93.01758148,58.39751286
44.01082762,93.02262007,58.40405232
44.03537736,93.02851630,58.42324185
44.05671098,93.06314322,58.45143654
44.07536449,93.06936106,58.39140223
44.10913379,93.08533448,58.45690395
44.10977702,93.12414237,58.47041166
44.11020583,93.14965695,58.44253859
44.08136792,93.18449828,58.45808319
44.10420240,93.22941681,58.51307890
44.11910377,93.26897513,58.53269726
44.10248714,93.31346484,58.53623499
44.09316038,93.38561321,58.64719125
44.09090909,93.39858491,58.60763293
44.10956261,93.43760720,58.55981990
44.11663808,93.46226415,58.58426244
44.13078902,93.50921955,58.62971698
44.13539880,93.58629931,58.61267153
44.12457118,93.62607204,58.66852487
43.88325472,93.52154803,58.51082762
43.61052744,93.24131647,58.31614494
43.57943825,93.15748285,58.26490137
43.64311750,93.11867496,58.27433533
43.70840480,93.10913379,58.31367925
43.75375214,93.07900943,58.37081904
43.75257290,93.04888508,58.32632933
43.78066038,93.01736707,58.29309605
43.79813465,93.00653945,58.31142796
43.81571612,93.01082762,58.31764580
43.80381647,92.97662950,58.30145798
43.80070755,92.95722556,58.29984991
43.80746141,92.95068611,58.27680103
43.85988422,92.95658233,58.35709691
43.87114065,92.96355060,58.37092624
43.88261149,93.00696827,58.38411235
43.93213979,93.00439537,58.37703688
43.93792882,93.03355489,58.41241424
43.94253859,93.06903945,58.38657804
43.93181818,93.11663808,58.44789880
43.94189537,93.13443396,58.45668954
43.96226415,93.18975129,58.42195540
43.96012007,93.23606346,58.48391938
43.94028731,93.25353774,58.47523585
43.94575472,93.30060034,58.44854202
43.94897084,93.33018868,58.46698113
43.95786878,93.34444683,58.46837479
43.98488422,93.40876930,58.50696827
43.99099485,93.46783877,58.54459691
43.94371784,93.48445540,58.56464408
43.76168525,93.40212264,58.42292024
43.48852916,93.16348628,58.22952401
43.44328902,93.08115352,58.19178816
43.50439537,93.06057033,58.23466981
43.58254717,93.04459691,58.26586621
43.64579760,93.05574614,58.33233276
43.65962693,93.05263722,58.29148799
43.66916810,93.03987993,58.25514580
43.68213979,93.03226844,58.22201973
43.68396226,93.01822470,58.31903945
43.67763722,92.99603345,58.25139365
43.68053173,92.98156089,58.28301887
43.68106775,92.97330617,58.29899228
43.69307461,92.99088765,58.34251715
43.74635506,93.03987993,58.32611492
43.76189966,93.06250000,58.34573328
43.75900515,93.10098628,58.36427959
43.76993997,93.13228988,58.37821612
43.78837907,93.16059177,58.40308748
43.79545455,93.18246141,58.38743568
43.80939108,93.21548027,58.42753002
43.81914666,93.25911235,58.43599914
43.79802744,93.31432247,58.46826758
43.82096913,93.34519726,58.46698113
43.80981990,93.38979417,58.46355060
43.80102916,93.49099485,58.47898799
43.81442967,93.50525300,58.47888079
43.78044597,93.49807033,58.50085763
43.76747427,93.53248285,58.50332333
43.77026158,93.58243997,58.54041595
43.73649228,93.61385077,58.50300172
43.48220412,93.49142367,58.37457118
43.25053602,93.27347770,58.19457547
43.25814751,93.20390223,58.21569468
43.31142796,93.20443825,58.22437822
43.36342196,93.19575472,58.26136364
43.38207547,93.16959691,58.22019726
43.36620926,93.14815609,58.25300172
43.38700686,93.12907376,58.25128645
43.41723842,93.12950257,58.26029160
43.44800600,93.11567324,58.24882075
43.45433105,93.11685249,58.25450257
43.44982847,93.10205832,58.27680103
43.47019726,93.10484563,58.26929674
43.49120926,93.13550600,58.29180961
43.51147084,93.16455832,58.28141081
43.53537736,93.17988851,58.29931389
43.58919383,93.22255575,58.34519726
43.56518010,93.26500858,58.38657804
43.58822899,93.27883791,58.34959262
43.60924099,93.32236278,58.38282590
43.58876501,93.33297599,58.42324185
43.60988422,93.39697684,58.40812607
43.60859777,93.43664237,58.47394940
43.60452401,93.47609348,58.43985849
43.61492281,93.51929674,58.46483705
43.56528731,93.59101630,58.44178816
43.61931818,93.64140223,58.54298885
43.66455832,93.71644511,58.50632504
43.65458834,93.78194683,58.60184391
43.68803602,93.82011149,58.56410806
43.67259863,93.86470840,58.58855060
43.66563036,93.89033019,58.58458405
43.45090051,93.81560892,58.52915952
43.15523156,93.60934820,58.32311321
43.05906947,93.47587907,58.30478130
43.08083190,93.45647513,58.20561750
43.16766724,93.47255575,58.26758148
43.20015009,93.46494425,58.30542453
43.22234134,93.45947684,58.29824185
43.22877358,93.43932247,58.30060034
43.26436535,93.45819039,58.31303602
43.28644940,93.46612350,58.32525729
43.26147084,93.42484991,58.33372642
43.26490137,93.40598199,58.30821184
43.28580617,93.42495712,58.30381647
43.32493568,93.44757719,58.34015866
43.34219554,93.48006003,58.35205832
43.32568611,93.49892796,58.35141509
43.35195111,93.53569897,58.36460120
43.36803173,93.55070755,58.40383791
43.37596484,93.58479846,58.42656518
43.37210549,93.62596484,58.40490995
43.38389794,93.65147942,58.45229417
43.37982419,93.66648799,58.42056175
43.38346913,93.70786878,58.45958405
43.39311750,93.76082762,58.43063894
43.35656089,93.81089194,58.49292453
43.39011578,93.85409520,58.51211407
43.40694683,93.88507719,58.51222127
43.40876930,93.94543310,58.51533019
43.43449828,93.98574185,58.54749142
43.42227702,94.02862350,58.56400086
43.44596913,94.10741852,58.61771012
43.31078473,94.09080189,58.56142796
42.98927959,93.84905660,58.35012864
42.92024014,93.68289022,58.23649228
42.93085334,93.66991852,58.27390652
43.00600343,93.71247856,58.35227273
43.06153516,93.73198971,58.35698971
43.07472127,93.71901801,58.40233705
43.07075472,93.70218696,58.37500000
43.09862779,93.73006003,58.37349914
43.11524443,93.73338336,58.38132504
43.09755575,93.72084048,58.31882504
43.10516724,93.70593911,58.36159949
43.11277873,93.67517153,58.38186106
43.14108062,93.68246141,58.38400515
43.15458834,93.72169811,58.39965695
43.17667238,93.73906518,58.43610635
43.19618353,93.75793310,58.43417667
43.20958405,93.78912950,58.42828045
43.22041166,93.80724700,58.48670669
43.23542024,93.81325043,58.44210978
43.24442539,93.81689537,58.45197256
43.21237136,93.86009863,58.47437822
43.22909520,93.88475557,58.51404374
43.24656947,93.91873928,58.50042882
43.18578473,93.97480703,58.50954117
43.24088765,93.98595626,58.52283448
43.26200686,94.03559177,58.57182676
43.26500858,94.06410806,58.62156947
43.28173242,94.11749571,58.62457118
43.27594340,94.15501715,58.63807890
43.19007290,94.10666810,58.62746569
42.86695969,93.91520154,58.33136792
42.78827187,93.73981561,58.25139365
42.80113636,93.69243139,58.25568182
42.86931818,93.69028731,58.27454974
42.91005575,93.67999571,58.33158233
42.92195540,93.65330189,58.29180961
42.93739280,93.63036021,58.31775300
42.95926244,93.59369640,58.27680103
42.98081046,93.58329760,58.29363208
42.98477702,93.57933105,58.26865352
42.99699828,93.57139794,58.29524014
42.99721269,93.56110635,58.29695540
43.02144082,93.57096913,58.33404803
43.04052316,93.59841338,58.36149228
43.10173671,93.65426672,58.42442110
43.12006861,93.65887650,58.43460549
43.14729846,93.69082333,58.43074614
43.15984134,93.70272298,58.42785163
43.16241424,93.73831475,58.41948971
43.17442110,93.78355489,58.42635077
43.18149657,93.79727702,58.45894082
43.17259863,93.84584048,58.48027444
43.18096055,93.88228988,58.49056604
43.21151372,93.93514151,58.50268010
43.16059177,93.95411664,58.50471698
43.17838765,93.99871355,58.55081475
43.22587907,94.06250000,58.60388079
43.22545026,94.12081904,58.60130789
43.23038165,94.14547599,58.54063036
43.25107204,94.18889365,58.60999142
43.21537307,94.23895798,58.64526158
42.93481990,94.06453688,58.43096055
42.67753002,93.84819897,58.26693825
42.68021012,93.77519297,58.26833190
42.75568182,93.73895798,58.31185678
42.83361921,93.74335334,58.33469125
42.86181389,93.72652230,58.37853774
42.88132504,93.68471269,58.37296312
42.88336192,93.63743568,58.36792453
42.90662521,93.62510720,58.31850343
42.91595197,93.58383362,58.34155232
42.93106775,93.57364923,58.34123070
42.95679674,93.53441252,58.29384648
42.99560463,93.52562178,58.28677101
43.02090480,93.53312607,58.30220840
43.03912950,93.56228559,58.31807461
43.09348199,93.57118353,58.39751286
43.10045026,93.58544168,58.38346913
43.13454117,93.63947256,58.40748285
43.14515437,93.65308748,58.39622642
43.15480274,93.67474271,58.43246141
43.15330189,93.70690395,58.47019726
43.18278302,93.73617067,58.45872642
43.16627358,93.78912950,58.47802316
43.18975129,93.82847341,58.49978559
43.17506432,93.87639365,58.48209691
43.22084048,93.92688679,58.54524014
43.23895798,93.97780875,58.60581046
43.25879074,94.02101201,58.58747856
43.25364494,94.05210120,58.60827616
43.24817753,94.09809177,58.62124786
43.26072041,94.15094340,58.61899657
43.26511578,94.19864923,58.61953259
43.03816467,94.07011149,58.57997427
42.76608062,93.87135506,58.36728130
42.70025729,93.73070326,58.27165523
42.74903516,93.73788593,58.29899228
42.84230274,93.72566467,58.34337479
42.88496998,93.71966123,58.37210549
42.89729846,93.71012007,58.32547170
42.92302744,93.68889365,58.32590051
42.94318182,93.67903087,58.34048027
42.95057890,93.67356346,58.33265437
42.92677959,93.63990137,58.31893225
42.93685678,93.61545883,58.33286878
42.95583190,93.64601201,58.32740137
42.97330617,93.62124786,58.31121355
43.00546741,93.64654803,58.33029588
43.04406089,93.67870926,58.35473842
43.08855060,93.71569468,58.39579760
43.09830617,93.73788593,58.36481561
43.11878216,93.75793310,58.39858491
43.11663808,93.77637221,58.42967410
43.11921098,93.81110635,58.47748714
43.13840051,93.84637650,58.48938679
43.14065180,93.89665523,58.50900515
43.06153516,93.93696398,58.52851630
43.08243997,93.99174528,58.53955832
43.13614923,94.03430532,58.50986278
43.13936535,94.04909949,58.57096913
43.15105060,94.10216552,58.55478130
43.17710120,94.17452830,58.59240995
43.18846484,94.21247856,58.60291595
43.13722127,94.20518868,58.62778731
42.83897942,94.00171527,58.37650086
42.68492710,93.86545883,58.31014151
42.67635077,93.83715695,58.32815180
42.76029160,93.85205832,58.34283877
42.79813465,93.85602487,58.37274871
42.85162950,93.87993139,58.39708405
42.84358919,93.89376072,58.43621355
42.86974700,93.89762007,58.39504717
42.89129503,93.90630360,58.45518868
42.87864494,93.90823328,58.44661235
42.85355918,93.86685249,58.38250429
42.84969983,93.85570326,58.37071184
42.85463122,93.85463122,58.40201544
42.90094340,93.91487993,58.45347341
42.98370497,93.96719554,58.49764151
42.99539022,94.00932676,58.49817753
42.99946398,94.04020154,58.44414666
42.98885077,94.06839623,58.45947684
43.00289451,94.10645369,58.54041595
42.99388937,94.14247427,58.57043310
43.01876072,94.20015009,58.57386364
43.02122642,94.21912521,58.56775300
42.99549743,94.25343053,58.59626930
42.99260292,94.28419811,58.57622213
43.02047599,94.32043310,58.61181389
43.02401372,94.36942539,58.63829331
43.04159520,94.41680961,58.66959691
43.05606775,94.47309177,58.71022727
43.04545455,94.50214408,58.72277015
42.77347770,94.36888937,58.51554460
42.49324614,94.14290309,58.30885506
42.49217410,94.08629931,58.31871784
42.56635935,94.05521012,58.38840051
42.62081904,94.07986707,58.39633362
42.64086621,94.06818182,58.39772727
42.66756003,94.06207118,58.40105060
42.67592196,94.06893225,58.40105060
42.70894082,94.04298885,58.43149657
42.74163808,94.02722985,58.42216981
42.75064322,94.00042882,58.42710120
42.75214408,93.98413379,58.43953688
42.76822470,93.97448542,58.40308748
42.81657376,94.00825472,58.40383791
42.83383362,94.01179245,58.48885077
42.88153945,94.05949828,58.47159091
42.88647084,94.06528731,58.46987564
42.91102058,94.07890223,58.53409091
42.91616638,94.13829331,58.54245283
42.92045455,94.17367067,58.51136364
42.93524871,94.22384220,58.55124357
42.94339623,94.24871355,58.57311321
42.95186535,94.26533019,58.56850343
42.94897084,94.30488851,58.60484563
42.96269297,94.33640652,58.63743568
42.98166810,94.43428388,58.59659091
42.98831475,94.44950686,58.61095626
42.99035163,94.50021441,58.65265866
42.99120926,94.54030875,58.68717839
43.02937393,94.59369640,58.73327616
43.01425815,94.61460120,58.72073328
42.76993997,94.49699828,58.60806175
42.50032161,94.28291166,58.44350343
42.44028731,94.14547599,58.27819468
42.52862350,94.13454117,58.35345197
42.60806175,94.12414237,58.40458834
42.62382075,94.09101630,58.39354631
42.64912093,94.02990995,58.40426672
42.68203259,94.02122642,58.38443396
42.72534305,94.01350772,58.34862779
42.74614065,93.98885077,58.36813894
42.76007719,93.96204974,58.36513722
42.75503859,93.91434391,58.32257719
42.77326329,93.89097341,58.38003859
42.82397084,93.90051458,58.39644082
42.85784734,93.87735849,58.40394511
42.90887650,93.89879931,58.45733276
42.93921527,93.90619640,58.46773156
42.98070326,93.95325901,58.43138937
42.96944683,93.96944683,58.48702830
42.98617067,94.00032161,58.43857204
42.98134648,94.03130360,58.48177530
42.99656947,94.04138079,58.52208405
42.99399657,94.07804460,58.47084048
43.01479417,94.11599485,58.51050600
43.03173242,94.15051458,58.53987993
43.00996998,94.19714837,58.57986707
43.01854631,94.23509863,58.60988422
43.03945111,94.28816467,58.59712693
43.07825901,94.33533448,58.63400515
43.07236278,94.36052744,58.64418954
43.09251715,94.40598199,58.70743997
43.12489280,94.44671955,58.67420669
43.03923671,94.45733276,58.67688679
42.70132933,94.28323328,58.45154374
42.53087479,94.08126072,58.36427959
42.56014151,94.03226844,58.37339194
42.64869211,93.98659949,58.36567324
42.71226415,94.02251286,58.41809605
42.71923242,94.02948113,58.39954974
42.73649228,94.00450257,58.35934820
42.75750429,93.98048885,58.37457118
42.77722985,93.95325901,58.39386792
42.80435249,93.93771441,58.41048456
42.79020154,93.92999571,58.46408662
42.79170240,93.92334906,58.43406947
42.81089194,93.90115780,58.41187822
42.83715695,93.92013293,58.35731132
42.86695969,93.94586192,58.33672813
42.91445111,93.97813036,58.41080617
42.91520154,93.99217410,58.44822041
42.92431389,94.00493139,58.48027444
42.95947684,94.02937393,58.50407376
42.94629074,94.05842624,58.55006432
42.97180532,94.12467839,58.49603345
42.98542024,94.12628645,58.56732419
42.95551029,94.15533877,58.58093911
42.95090051,94.20540309,58.59455403
42.97512864,94.26715266,58.58833619
42.97941681,94.29609777,58.60977702
43.00032161,94.32386364,58.61524443
42.97973842,94.35066467,58.61374357
43.00611063,94.41777444,58.65576758
43.03280446,94.46076329,58.65458834
43.02133362,94.50568182,58.66498714
42.89290309,94.42163379,58.62231990
42.60291595,94.20883362,58.38529160
42.52497856,94.07858062,58.33715695
42.58126072,94.06925386,58.42431389
42.71837479,94.09873499,58.46644511
42.74185249,94.08490566,58.45668954
42.76661664,94.07107633,58.44007290
42.78569897,94.05821184,58.41605918
42.77390652,94.05692539,58.44028731
42.79770583,94.03312607,58.44200257
42.78366209,93.98949400,58.38486278
42.77540738,93.94586192,58.41627358
42.77958834,93.94210978,58.38443396
42.82214837,93.93621355,58.43192539
42.84669811,93.96719554,58.44339623
42.89590480,94.00954117,58.46644511
42.93642796,94.02990995,58.47716552
42.92795883,94.04759863,58.45325901
42.95733276,94.04781304,58.50278731
42.96044168,94.06507290,58.51768868
42.94768439,94.12735849,58.51822470
42.95668954,94.14558319,58.56710978
42.96333619,94.15072899,58.51972556
42.92195540,94.20090051,58.51136364
42.94897084,94.23606346,58.59777015
42.97105489,94.26372213,58.60934820
42.99506861,94.31067753,58.63443396
43.00686106,94.34669811,58.63036021
43.01114923,94.38143225,58.66616638
43.01468696,94.39547599,58.67356346
42.97941681,94.42860206,58.65694683
42.71762436,94.25793310,58.46612350
42.51200686,94.00364494,58.26779588
42.54427530,93.91798885,58.29363208
42.62939537,93.86438679,58.34015866
42.68074614,93.84198113,58.36921098
42.72941681,93.81346484,58.33962264
42.75439537,93.76018439,58.31142796
42.77883791,93.68042453,58.28891509
42.81464408,93.64033019,58.28419811
42.83887221,93.60452401,58.29813465
42.86245712,93.55864065,58.30521012
42.89472556,93.52079760,58.32096913
42.90823328,93.47662950,58.27208405
42.94082333,93.48413379,58.28687822
43.00836192,93.49721269,58.29524014
43.01511578,93.48252573,58.32107633
43.03859348,93.51886792,58.36642367
43.08361921,93.54995712,58.39944254
43.08855060,93.57847341,58.39515437
43.06893225,93.60280875,58.38346913
43.07858062,93.60388079,58.34680532
43.10098628,93.63872213,58.38550600
43.12478559,93.66445111,58.43096055
43.06357204,93.69714837,58.40340909
43.12703688,93.72716552,58.47352058
43.12607204,93.77637221,58.53237564
43.13207547,93.82354202,58.42602916
43.14461835,93.86974700,58.50139365
43.11878216,93.89301029,58.49549743
43.16262864,93.96408662,58.52905232
43.17174099,93.99892796,58.54223842
43.14654803,94.02969554,58.59980703
43.02862350,93.93942967,58.50482419
42.72073328,93.64183105,58.28891509
42.65566038,93.42066895,58.12843053
42.73402659,93.33994425,58.15426672
42.84133791,93.30767581,58.20668954
42.87006861,93.23777873,58.20583190
42.90544597,93.17045455,58.20947684
42.94243139,93.12810892,58.17849485
43.01265009,93.07547170,58.14708405
43.05242281,93.04105918,58.17656518
43.06024871,92.98177530,58.14794168
43.04716981,92.92495712,58.12457118
43.08522727,92.91713122,58.12296312
43.12692967,92.89343911,58.12264151
43.19210978,92.91059177,58.16252144
43.23220412,92.90244425,58.16680961
43.25514580,92.92259863,58.11170669
43.27197684,92.93857204,58.16027015
43.26811750,92.95315180,58.19414666
43.26811750,92.99560463,58.23274014
43.28183962,93.01318611,58.22780875
43.31282161,93.04309605,58.30403087
43.26554460,93.08093911,58.27798027
43.27948113,93.11588765,58.28741424
43.30821184,93.16412950,58.29706261
43.32000429,93.19822041,58.28441252
43.36170669,93.23520583,58.32289880
43.37682247,93.30349485,58.33780017
43.37081904,93.35473842,58.37725129
43.36449400,93.41273585,58.41788165
43.39236707,93.45304460,58.39386792
43.38765009,93.49142367,58.45926244
43.28773585,93.47662950,58.40544597
42.99539022,93.24903516,58.17227702
42.87757290,93.03494854,58.06668096
42.93449828,92.92656518,58.01983276
42.98359777,92.91262864,58.03162521
43.05692539,92.90941252,58.12296312
43.08158233,92.89397513,58.07236278
43.09573328,92.88304031,58.08243997
43.13915094,92.86878216,58.13293310
43.18085334,92.85645369,58.14654803
43.16541595,92.84852058,58.09123070
43.13840051,92.80499571,58.03677101
43.16809605,92.81882504,58.05810463
43.17281304,92.81753859,58.04009434
43.21312178,92.83490566,58.12500000
43.24678388,92.85956261,58.16959691
43.26575901,92.89033019,58.16477273
43.29202401,92.93567753,58.17924528
43.29695540,92.96269297,58.18846484
43.28934391,92.97995283,58.22030446
43.29373928,93.00664666,58.22727273
43.28441252,93.07472127,58.23488422
43.28816467,93.10463122,58.28730703
43.29641938,93.14354631,58.26039880
43.29084477,93.19093053,58.26940395
43.28998714,93.26018439,58.27840909
43.28130360,93.29974271,58.33726415
43.28559177,93.33361921,58.32182676
43.29727702,93.40683962,58.32450686
43.31657376,93.47416381,58.41262864
43.28827187,93.52605060,58.39569039
43.09712693,93.40630360,58.22555746
42.86063465,93.15823328,58.06989708
42.83426244,93.11492281,58.05810463
42.89108062,93.09240995,58.09777015
42.96526587,93.08897942,58.14258148
43.00578902,93.09798456,58.14858491
43.00814751,93.09455403,58.17945969
43.05896226,93.12006861,58.19253859
43.07504288,93.11363636,58.20025729
43.06389365,93.08683533,58.14965695
43.02776587,93.05628216,58.12317753
43.00611063,93.02755146,58.11931818
43.03119640,93.05070755,58.17806604
43.06882504,93.07054031,58.16959691
43.08897942,93.10398799,58.20690395
43.11674528,93.12703688,58.19071612
43.12521441,93.15587479,58.23734991
43.12167667,93.20379503,58.26318611
43.13346913,93.21344340,58.24689108
43.13228988,93.26222127,58.27658662
43.15040738,93.30606775,58.30885506
43.13143225,93.36277873,58.27422813
43.12585763,93.40180103,58.22791595
43.13990137,93.43278302,58.32300600
43.14108062,93.48156089,58.28151801
43.17484991,93.52819468,58.34466123
43.17227702,93.57686535,58.40555317
43.15651801,93.63164666,58.40351630
43.12403516,93.63732847,58.40726844
42.85934820,93.47963122,58.19232419
42.68138937,93.26007719,58.09669811
42.72116209,93.19135935,58.09787736
42.78934391,93.15641081,58.12510720
42.83061750,93.13722127,58.09648370
42.86653087,93.08222556,58.13775729
42.89118782,93.05521012,58.07279160
42.91563036,93.03226844,58.11310034
42.93771441,93.00268010,58.08629931
42.96215695,92.98531304,58.08715695
42.94618353,92.97298456,58.06668096
42.96440823,92.95411664,58.10591767
42.99914237,92.94575472,58.07568611
43.02487136,92.95797599,58.11771012
43.05542453,92.97523585,58.15169383
43.07922384,93.01768868,58.16563036
43.11406518,93.03259005,58.20754717
43.13957976,93.06539451,58.19789880
43.13786449,93.09326758,58.21976844
43.11610206,93.12060463,58.22652230
43.12607204,93.15716123,58.22405660
43.11277873,93.18417667,58.24442539
43.12178388,93.23284734,58.23970840
43.09412521,93.31089194,58.27229846
43.10913379,93.32311321,58.28966552
43.12682247,93.36996141,58.32965266
43.11567324,93.41948971,58.32986707
43.14290309,93.49731990,58.37617925
43.15276587,93.52390652,58.42034734
43.09112350,93.54395369,58.33597770
42.81689537,93.37199828,58.13936535
42.63153945,93.14290309,58.03291166
42.66563036,93.07750858,58.03998714
42.72727273,93.05960549,58.05574614
42.77615780,93.02680103,58.07439966
42.81764580,93.00375214,58.10473842
42.81571612,92.97437822,58.03848628
42.83072470,92.93449828,58.06228559
42.83972985,92.91477273,58.04920669
42.84530446,92.89762007,58.02004717
42.86234991,92.85120069,58.02958834
42.87885935,92.85141509,58.00686106
42.94500429,92.87896655,58.09873499
42.94168096,92.86878216,58.05831904
42.96505146,92.87028302,58.12371355
42.98649228,92.88357633,58.09305317
42.99882075,92.91713122,58.15598199
43.03269726,92.95808319,58.14869211
43.04566895,93.00707547,58.15373070
43.03108919,93.03344768,58.16573756
43.02905232,93.04877787,58.18213979
43.01157804,93.08104631,58.19425386
43.01157804,93.10420240,58.24292453
43.02304889,93.11931818,58.22030446
43.01179245,93.23220412,58.23734991
43.03484134,93.29513293,58.21601630
43.03719983,93.32793739,58.24860635
43.08351201,93.39804889,58.28655660
43.07611492,93.42860206,58.31882504
43.04674099,93.47341338,58.33897942
42.79877787,93.31014151,58.16005575
42.58876501,93.11856775,58.00621784
42.55853345,93.03516295,57.95518868
42.61052744,93.03334048,57.95079331
42.65716123,93.03216123,58.01672384
42.68364065,93.03334048,58.05864065
42.68503431,92.99421098,58.02530017
42.70626072,92.96526587,58.03301887
42.71966123,92.94950686,57.98531304
42.75096484,92.94950686,58.01554460
42.75182247,92.92463551,57.99882075
42.76393654,92.92345626,58.06753859
42.77658662,92.91552316,58.05510292
42.79084477,92.91391509,58.04213122
42.81078473,92.94564751,58.05756861
42.81367925,92.97234134,58.03773585
42.82718696,92.99978559,58.07054031
42.86331475,93.02840909,58.08222556
42.88454117,93.06700257,58.09530446
42.89075901,93.10495283,58.15705403
42.88046741,93.13261149,58.11138508
42.90737564,93.16895369,58.15566038
42.89333190,93.20079331,58.11910377
42.89965695,93.24914237,58.13507719
42.88121784,93.28323328,58.16530875
42.85087907,93.37617925,58.20915523
42.88100343,93.42881647,58.26050600
42.91638079,93.45175815,58.30253002
42.86127787,93.45969125,58.27315609
42.66370069,93.31357204,58.03269726
42.47587907,93.14976415,57.84873499
42.46987564,93.12639365,57.92270583
42.52615780,93.11963979,57.96097770
42.61095626,93.18256861,58.05027873
42.63604202,93.17506432,58.05177959
42.66273585,93.16680961,58.08340480
42.68160377,93.17945969,58.06153516
42.69168096,93.18653516,58.05874786
42.66445111,93.16509434,58.04352487
42.65212264,93.15276587,58.08029588
42.65641081,93.16412950,58.05370926
42.65619640,93.14590480,58.09637650
42.69178816,93.17849485,58.12274871
42.71076329,93.19661235,58.11792453
42.73509863,93.22952401,58.13818611
42.76854631,93.26747427,58.14033019
42.74463979,93.31582333,58.10141509
42.74849914,93.33533448,58.15523156
42.75943396,93.38357633,58.20861921
42.74656947,93.40308748,58.20861921
42.74646226,93.45936964,58.21773156
42.74035163,93.50107204,58.28087479
42.75761149,93.53183962,58.29363208
42.73938679,93.55778302,58.30992710
42.75996998,93.61631647,58.30949828
42.73874357,93.64483276,58.31528731
42.48316895,93.54813465,58.17742281
42.35623928,93.36910377,58.03912950
42.35506003,93.33962264,58.05467410
42.39665523,93.31110635,58.05660377
42.44822041,93.31850343,58.09937822
42.45229417,93.30177959,58.08458405
42.45765437,93.27369211,58.03098199
42.46912521,93.25664666,58.05574614
42.51361492,93.23852916,58.06957547
42.49817753,93.22695111,58.09509005
42.49260292,93.20958405,58.06721698
42.50771870,93.18696398,58.05317324
42.53698542,93.17463551,58.10045026
42.56282161,93.18181818,58.09991424
42.58426244,93.19168096,58.10763293
42.61074185,93.21730274,58.12853774
