R,G,B
71.62403516,59.52304889,62.07622213
71.41027015,59.52197684,61.78462693
71.48306175,59.40930532,62.10055746
71.46226415,59.21998285,61.93310463
71.47630789,59.23295455,61.86717410
71.43535592,59.32750858,61.98102487
71.56550172,59.40748285,62.05220840
71.57879503,59.50546741,61.94135935
71.67688679,59.59348199,62.03880789
71.73252573,59.68621355,62.13411235
71.77915952,59.76522298,62.20497427
71.89150943,59.88936535,62.24228130
71.95497427,59.99849914,62.30424528
71.97405660,60.05295883,62.34734134
72.09133791,60.18867925,62.48734991
72.19468268,60.35527444,62.46762436
72.25171527,60.43246141,62.50900515
72.35591767,60.56217839,62.58426244
72.39247427,60.67913808,62.69864923
72.50675386,60.83930103,62.73960120
72.61170669,60.97191252,62.85806175
72.68771441,61.10623928,62.92720840
72.82847341,61.27358491,63.03259005
72.91166381,61.41123499,63.10548885
73.01275729,61.55285163,63.19264580
73.05220840,61.65533877,63.20358062
73.16670240,61.83780017,63.35216552
73.23456261,61.95583190,63.36513722
73.33265437,62.07793739,63.49088765
73.40501715,62.21655232,63.50192967
73.46226415,62.34562607,63.55746141
72.93481990,61.80660377,62.93524871
72.19682676,60.87907376,62.36192110
71.39258148,59.78666381,61.68289022
70.95915523,59.05606775,61.22909520
70.82268439,58.74378216,61.17817324
70.79009434,58.63293310,61.14472556
70.74924957,58.53033877,61.12360635
70.65480274,58.39129503,61.03301887
70.56721698,58.23081046,60.93878645
70.59594768,58.25182247,60.95465266
70.58715695,58.23466981,60.94714837
70.51704545,58.11888937,60.84058748
70.42056175,58.00439537,60.75782590
70.39225986,57.95443825,60.77069039
70.47995283,57.99153087,60.83479846
70.53098199,58.08715695,60.89268868
70.66466552,58.21355060,61.01007719
70.75996998,58.38025300,61.06978988
70.90094340,58.57032590,61.15180103
71.00739708,58.69972127,61.28870069
71.11685249,58.82890223,61.38057461
71.23209691,58.98274014,61.49517581
71.32032590,59.13722127,61.55038593
71.35966981,59.22695111,61.59337479
71.49174528,59.41520154,61.70100772
71.59080189,59.54877787,61.76768868
71.63786449,59.64301029,61.79138079
71.72705832,59.77894511,61.86427959
71.86653087,59.96515866,62.02026158
71.98413379,60.09048027,62.08469125
72.10709691,60.29727702,62.20336621
72.14301029,60.45175815,62.18439108
72.27101201,60.59433962,62.31732419
72.41134220,60.77926672,62.46237136
72.47448542,60.88807890,62.54288165
72.61170669,61.06024871,62.61170669
72.72802316,61.23166810,62.69800600
72.82118353,61.40523156,62.76500858
72.91906089,61.55199400,62.84551887
72.99667667,61.70036449,62.95336621
73.12071184,61.86663808,63.07482847
73.17088336,61.95283019,63.06174957
72.64804889,61.33587050,62.57000429
71.84487564,60.38582762,62.01211407
71.47662950,59.74957118,61.71333619
71.36899657,59.48820755,61.60741852
71.35591767,59.42131218,61.64987136
71.31046312,59.32547170,61.53987993
71.28033877,59.22737993,61.49496141
71.15844768,59.07783019,61.38314751
71.15876930,59.07236278,61.41691681
71.14601201,59.06174957,61.42152659
71.07600772,58.93878645,61.32129074
71.02926672,58.81593053,61.27283448
70.97277015,58.77015437,61.22469983
71.00010720,58.77819468,61.26833190
71.05263722,58.85559605,61.32429245
71.15158662,58.97662950,61.40608919
71.24656947,59.09927101,61.46655232
71.37221269,59.23820755,61.58168954
71.50171527,59.39022298,61.65801887
71.55038593,59.49399657,61.69939966
71.59498285,59.66530875,61.75343053
71.68760720,59.75150086,61.84090909
71.79781304,59.89215266,61.94639794
71.90759005,60.03366209,62.03451973
71.98488422,60.15040738,62.06400086
72.09294597,60.28784305,62.15898370
72.18385506,60.41756003,62.17913808
72.28955832,60.59573328,62.32214837
72.36556604,60.69639794,62.39794168
72.48252573,60.89504717,62.49260292
72.57579331,61.04813465,62.56850343
72.71783877,61.23198971,62.71097770
72.81121355,61.36267153,62.76575901
72.91734563,61.53376930,62.84015866
72.96655232,61.68417667,62.93331904
73.07900943,61.83887221,63.02862350
73.16605918,61.96665952,63.11031304
73.29459691,62.15587479,63.25600343
73.45433105,62.38464837,63.35227273
73.51072041,62.50493139,63.37928816
73.33822899,62.32300600,63.19071612
72.62242710,61.45218696,62.61063465
72.03334048,60.72051887,62.15834048
71.82557890,60.35602487,62.03848628
71.82986707,60.24281732,62.01018439
71.83565609,60.20100772,61.98102487
71.86824614,60.17978130,62.04020154
71.81710978,60.09498285,61.97427101
71.79952830,60.08469125,61.97234134
71.81410806,60.08554889,61.96397942
71.78366209,60.03752144,61.93396226
71.65598199,59.88990137,61.85666810
71.63046741,59.80928388,61.85495283
71.61084906,59.77165523,61.74163808
71.66434391,59.81292882,61.80113636
71.78334048,59.94586192,61.92677959
71.88089623,60.06035592,62.00460978
71.99399657,60.21312178,62.08640652
72.08822899,60.34401801,62.17313465
72.15662521,60.42592196,62.23509863
72.20690395,60.51136364,62.29609777
72.25728988,60.61535163,62.31475129
72.34326758,60.72062607,62.34519726
72.41981132,60.84305317,62.38807890
72.47394940,60.92849485,62.49238851
72.51768868,61.03591338,62.57579331
72.63078902,61.14472556,62.60463122
72.73595626,61.31507290,62.77133362
72.82000429,61.41863208,62.78441252
72.90437393,61.56174957,62.80831904
73.00825472,61.69736278,62.91798885
73.06968268,61.82268439,63.01350772
73.14987136,61.94704117,63.07783019
73.27894511,62.13915094,63.21612350
73.32150515,62.21558748,63.25525300
73.41970412,62.35795455,63.30499571
73.50632504,62.48038165,63.37317753
73.59433962,62.63100343,63.44811321
73.70100772,62.78634220,63.55735420
73.62435678,62.71505146,63.49485420
72.91144940,61.94939966,62.87692967
72.30660377,61.08576329,62.35977702
71.98927959,60.61985420,62.14708405
71.93117496,60.40544597,62.04674099
71.94371784,60.36374357,62.09444683
71.96580189,60.29127358,62.11374357
71.88861492,60.16005575,61.99882075
71.80521012,60.02840909,61.93964408
71.82761578,60.03301887,62.01543739
71.82632933,60.03730703,61.98048885
71.79309605,59.96076329,61.92474271
71.69746998,59.82590051,61.84219554
71.69168096,59.82096913,61.83319039
71.71601630,59.81614494,61.86331475
71.82825901,59.92581475,61.93546312
71.93406947,60.03505575,62.00439537
72.07300600,60.17828045,62.12124786
72.14086621,60.29159520,62.18932247
72.22673671,60.41155660,62.24839194
72.28023156,60.54073756,62.30210120
72.36856775,60.63872213,62.37628645
72.37296312,60.70122213,62.40362350
72.47984563,60.82911664,62.52079760
72.60334477,60.99807033,62.58126072
72.69157376,61.12617925,62.61438679
72.76436535,61.23156089,62.71162093
72.88743568,61.40030017,62.81560892
72.96301458,61.53205403,62.88496998
73.02787307,61.66359348,62.94554031
73.14193825,61.82225557,63.05789022
73.20433105,61.97319897,63.10784734
73.29459691,62.09391081,63.19746998
73.44103774,62.24892796,63.32590051
73.50278731,62.38357633,63.35398799
73.60248714,62.50450257,63.46762436
73.68374786,62.64193825,63.50750429
73.75825472,62.76897513,63.58651372
73.83136792,62.88218268,63.66048456
73.92409949,63.02958834,63.74957118
74.01833190,63.16370069,63.83136792
74.06700257,63.23209691,63.88368353
73.50150086,62.63057461,63.35098628
72.78044597,61.66316467,62.74421098
72.36524443,61.00546741,62.39762007
72.25310892,60.77605060,62.28226844
72.26447256,60.70465266,62.30521012
72.28141081,60.67141938,62.34530446
72.23574185,60.58308319,62.28698542
72.20165094,60.47180532,62.26790309
72.20197256,60.47341338,62.28409091
72.18449828,60.42720840,62.24431818
72.09798456,60.28259005,62.10849057
72.01843911,60.11792453,62.06174957
71.99356775,60.07268439,62.08404803
71.99721269,60.09219554,62.07890223
72.12039022,60.19414666,62.20207976
72.18739280,60.29288165,62.23606346
72.27637221,60.42088336,62.32311321
72.36931818,60.53183962,62.38775729
72.44596913,60.63550600,62.47577187
72.52069039,60.73531304,62.48359777
72.59176672,60.84734134,62.58812178
72.67474271,60.97212693,62.67795883
72.73424099,61.05671098,62.64997856
72.79888508,61.20004288,62.66359348
72.86192110,61.27894511,62.77208405
72.97330617,61.40383791,62.87382075
73.03655660,61.52154803,62.93149657
73.14376072,61.65383791,62.94864923
73.21397942,61.78559177,63.03087479
73.26254288,61.86996141,63.04427530
73.37446398,62.04620497,63.18814322
73.47630789,62.17978130,63.24024443
73.57343482,62.31121355,63.33758576
73.64397513,62.44929245,63.42356346
73.72748714,62.58276158,63.49442539
73.79899228,62.69779160,63.57236278
73.91069897,62.84894940,63.67292024
73.97094768,62.93599914,63.72673671
73.96537307,62.95958405,63.73638508
73.37768010,62.26511578,63.17420669
72.70808319,61.36267153,62.62639365
72.30971269,60.74281732,62.27219125
72.23166810,60.52948113,62.22545026
72.21204974,60.45090051,62.22684391
72.21976844,60.42517153,62.20218696
72.17602916,60.33662093,62.18331904
72.16327187,60.29877787,62.18149657
72.19564751,60.28569897,62.19822041
72.15737564,60.21869640,62.12907376
72.07943825,60.09959262,62.10538165
71.96129931,59.95122213,61.99839194
71.96805317,59.90608919,61.96998285
72.02304889,59.98016724,62.02047599
72.08865780,60.03891509,62.05671098
72.17785163,60.17570755,62.14333190
72.32504288,60.32504288,62.30403087
72.43857204,60.48895798,62.32729417
72.51511578,60.64247427,62.43192539
72.59852058,60.76275729,62.46880360
72.71387221,60.88818611,62.62789451
72.84819897,61.05445969,62.68674957
72.87221269,61.15094340,62.74764151
72.98081046,61.27240566,62.77562178
73.06089194,61.42302744,62.87414237
73.13765009,61.54073756,62.91059177
73.26104202,61.73081046,63.01275729
73.35741852,61.87028302,63.10141509
73.32289880,61.84433962,63.10034305
72.76993997,61.17238422,62.63679245
72.10763293,60.28709262,62.09862779
71.78612779,59.74710549,61.81228559
71.70561750,59.52701544,61.75450257
71.67602916,59.44168096,61.67517153
71.64965695,59.39622642,61.67045455
71.59916381,59.27755146,61.62596484
71.62199828,59.26350772,61.67409949
71.67849485,59.31271441,61.76597341
71.70486707,59.31099914,61.73638508
71.64837050,59.27744425,61.62156947
71.62821612,59.26222127,61.63979417
71.65512436,59.25911235,61.73917238
71.71505146,59.33426244,61.76265009
71.88239708,59.49796312,61.89054460
72.00921955,59.69403945,62.01779588
72.14569039,59.87103345,62.10388079
72.21912521,60.02294168,62.12650086
72.36610206,60.19586192,62.27176244
72.46955403,60.35377358,62.31367925
72.58126072,60.47062607,62.40222985
72.66520154,60.64804889,62.51018439
72.73724271,60.76811750,62.56743139
72.84294597,60.91091338,62.63475557
72.95743997,61.09187393,62.75782590
73.08233276,61.21933962,62.77937393
73.17785163,61.40576758,62.90641081
73.29781304,61.57161235,63.03773585
73.35849057,61.71119211,63.03837907
73.50471698,61.92688679,63.18953688
73.59648370,62.08812178,63.30767581
73.71355060,62.23434820,63.35570326
73.79931389,62.37307033,63.45518868
73.86481561,62.54770583,63.52562178
73.97223413,62.69671955,63.63861492
74.06164237,62.86159949,63.72394940
74.16981132,63.02229846,63.83876501
74.26050600,63.16445111,63.90523156
74.39547599,63.34058748,63.99110206
74.48413379,63.48156089,64.07568611
74.57300600,63.60623928,64.16648799
74.13947256,63.14933533,63.76983276
73.31539451,62.08897942,63.06582333
72.77615780,61.29716981,62.53923671
72.60109348,60.93449828,62.43557033
72.57064751,60.81207118,62.44221698
72.59005146,60.77980274,62.40716123
72.59626930,60.72405660,62.44425386
72.47030446,60.53934391,62.36567324
72.53130360,60.56410806,62.38979417
72.52583619,60.55413808,62.36352916
72.49421098,60.49485420,62.33233276
72.41745283,60.37843053,62.28666381
72.39097341,60.31250000,62.24517581
72.39719125,60.31314322,62.21601630
72.47019726,60.40630360,62.27401372
72.58694254,60.49624786,62.46408662
72.65651801,60.65973413,62.40566038
72.76640223,60.78891509,62.51490137
72.91948971,61.00439537,62.63968696
72.99045883,61.09423242,62.72973842
73.09433962,61.23820755,62.81539451
73.17227702,61.38496998,62.89354631
73.28591338,61.51275729,62.95379503
73.37103345,61.62660806,63.07064751
73.43964408,61.76125643,63.11331475
73.49142367,61.88464837,63.16273585
73.58008148,62.02133362,63.21901801
73.71515866,62.19886364,63.34444683
73.78891509,62.31099914,63.42206261
73.90126501,62.50611063,63.52026158
73.98263293,62.64815609,63.61427959
74.08319039,62.78044597,63.72598628
74.16048456,62.93471269,63.75075043
74.26382933,63.07086192,63.82793739
74.35816895,63.23102487,63.93707118
74.48198971,63.42109777,64.10162950
74.54963551,63.50096484,64.13046741
74.60623928,63.63304031,64.19200257
74.68224700,63.76522298,64.24142367
74.80210120,63.91273585,64.35463122
74.88100343,64.05960549,64.41766724
74.66445111,63.81646655,64.25750429
73.78998714,62.75825472,63.49131647
73.12467839,61.77047599,62.87231990
72.84444683,61.20936964,62.58501286
72.75793310,60.92452830,62.51672384
72.74388937,60.85581046,62.44714837
72.70658233,60.78462693,62.47673671
72.59015866,60.56164237,62.35602487
72.54213122,60.46129931,62.34594768
72.56035592,60.48466981,62.37832333
72.50257290,60.42281304,62.30317324
72.43449828,60.28505575,62.22609348
72.32847341,60.13036021,62.14236707
72.34594768,60.09423242,62.14762007
72.39633362,60.14997856,62.22244854
72.48070326,60.25578902,62.29931389
72.56142796,60.39804889,62.42935249
72.67131218,60.51543739,62.45368782
72.77197684,60.67270583,62.50332333
72.89279588,60.80681818,62.58747856
72.95690395,60.92538593,62.69918525
73.00889794,61.02626501,62.72394940
73.07643654,61.15469554,62.81657376
73.14987136,61.25857633,62.81946827
73.19328902,61.31764580,62.82986707
73.29792024,61.49003002,62.98424099
73.37382075,61.60002144,63.05049314
73.45808319,61.73788593,63.09294597
73.54116638,61.90994854,63.16595197
73.66948971,62.06099914,63.23810034
73.75471698,62.20690395,63.35484563
73.85731132,62.35216552,63.44929245
73.96526587,62.50471698,63.56539451
74.01029160,62.60891938,63.57289880
74.12682247,62.76404374,63.70658233
74.21301458,62.89997856,63.77347770
74.29363208,63.05156518,63.85731132
74.38647084,63.20400943,63.94114494
74.48692110,63.33640652,64.03108919
74.44714837,63.39354631,63.99024443
73.89472556,62.67216981,63.48477702
73.14644082,61.66037736,62.85377358
72.68696398,60.88936535,62.48070326
72.58415523,60.58136792,62.36674528
72.51918954,60.48359777,62.30713979
72.49431818,60.42034734,62.30992710
72.47888079,60.30478130,62.32536449
72.36760292,60.14676244,62.16284305
72.38250429,60.16895369,62.15115780
72.35291595,60.13679245,62.20154374
72.28784305,60.01918954,62.11760292
72.15930532,59.83855060,61.99656947
72.15115780,59.78923671,61.98670669
72.17870926,59.83115352,62.02690823
72.26672384,59.93674957,62.10784734
72.38304031,60.09337479,62.17699400
72.52551458,60.24228130,62.29781304
72.63722127,60.38036021,62.42367067
72.68063894,60.53698542,62.42806604
72.73102487,60.65319468,62.46515866
72.79513293,60.71044168,62.53183962
72.87553602,60.82193396,62.60752573
72.93846484,60.93331904,62.68803602
73.05553173,61.08018868,62.71912521
73.13593482,61.20861921,62.75771870
73.19939966,61.30295883,62.85849057
73.34026587,61.48520583,62.96655232
73.41209262,61.63100343,62.98456261
73.41638079,61.69018010,63.05381647
72.96837479,61.12703688,62.63239708
72.26811750,60.23531304,62.10816895
71.87660806,59.56786021,61.77433533
71.69028731,59.21944683,61.65748285
71.63078902,59.05789022,61.54180961
71.66316467,59.03473413,61.58597770
71.57461407,58.91530875,61.51307890
71.58490566,58.91530875,61.49721269
71.68782161,59.03130360,61.59969983
71.67828045,59.04877787,61.64676244
71.64729846,58.99721269,61.57289880
71.62178388,58.90008576,61.53945111
71.60162950,58.89987136,61.52401372
71.65801887,58.98692110,61.60591767
71.81775300,59.15523156,61.74056604
71.91659520,59.31303602,61.83469125
72.06700257,59.51597341,61.96301458
72.18213979,59.69050172,62.01125643
72.28977273,59.84230274,62.12210549
72.40147942,60.01768868,62.21322899
72.49153087,60.15812607,62.30070755
72.52379931,60.28516295,62.30124357
72.66445111,60.43181818,62.41509434
72.75439537,60.56614494,62.53998714
72.85913379,60.73606346,62.53945111
72.93610635,60.85441681,62.61813894
73.09626930,61.06882504,62.81174957
73.18278302,61.23123928,62.83243997
73.27883791,61.37424957,62.95936964
73.36052744,61.53055317,63.00825472
73.47277015,61.70304460,63.12135506
73.58319039,61.86556604,63.21783877
73.66595197,61.99592624,63.23885077
73.77422813,62.16745283,63.39215266
73.91059177,62.33619211,63.51029160
73.93610635,62.46033448,63.54652659
74.06057033,62.64676244,63.68128216
74.12521441,62.74185249,63.70583190
74.24957118,62.93374786,63.82161235
74.31786021,63.06207118,63.89890652
74.31303602,63.10463122,63.85227273
73.63454117,62.25160806,63.25289451
72.90866209,61.25235849,62.62521441
72.56839623,60.63593482,62.34262436
72.41284305,60.36931818,62.19950686
72.43728559,60.30435249,62.22480703
72.38346913,60.21365780,62.19457547
72.29277444,60.03376930,62.13604202
72.26479417,59.95454545,62.09219554
72.27304889,59.97009005,62.13389794
72.24689108,59.93750000,62.11009863
72.17399228,59.81657376,62.00804031
72.02755146,59.63368353,61.84573328
72.07236278,59.65726844,61.93599914
72.13121784,59.70068611,61.98799314
72.23788593,59.85087907,62.11695969
72.37092624,59.99463979,62.16959691
72.47609348,60.14590480,62.26361492
72.57632933,60.29631218,62.33983705
72.65619640,60.42956690,62.45658233
72.72984563,60.55360206,62.49292453
72.83780017,60.70508148,62.55478130
72.89129503,60.77144082,62.56989708
72.97491424,60.88679245,62.67131218
73.04041595,61.04213122,62.72523585
73.12156947,61.14901372,62.85634648
73.25203688,61.30563894,62.90662521
73.34744854,61.48745712,62.97759434
73.39376072,61.56464408,63.02026158
73.53398370,61.77798027,63.11117067
73.65319468,61.92163379,63.21301458
73.72716552,62.04877787,63.31099914
73.83801458,62.19371784,63.39547599
73.95218696,62.38743568,63.47598628
74.02444254,62.51586621,63.55274443
74.09037307,62.63711407,63.63068182
74.17538593,62.75814751,63.70540309
74.23617067,62.90019297,63.80113636
74.32364923,63.04427530,63.86524443
74.48241852,63.26586621,64.04373928
74.55199400,63.37639365,64.05092196
74.41069897,63.24474700,63.95422384
73.65598199,62.32858062,63.27926672
72.98520583,61.43803602,62.80081475
72.68696398,60.88807890,62.37950257
72.64558319,60.71483705,62.37500000
72.60120069,60.60849057,62.33726415
72.56410806,60.50686106,62.36299314
72.44939966,60.24678388,62.25600343
72.38186106,60.14922813,62.21376501
72.38207547,60.16573756,62.18674957
72.39954974,60.12596484,62.20915523
72.31753859,60.00085763,62.06689537
72.22523585,59.90019297,62.06250000
72.19639794,59.85162950,62.02101201
72.21515866,59.87424957,62.07665094
72.28291166,59.92056175,62.13840051
72.39933533,60.07686535,62.22094768
72.51436535,60.21998285,62.25171527
72.59155232,60.35055746,62.34026587
72.59894940,60.41841767,62.30971269
72.75879074,60.58426244,62.51801029
72.79427530,60.63775729,62.53891509
72.85334477,60.73777873,62.58704974
72.93664237,60.84744854,62.65791166
73.04095197,61.01372213,62.69168096
73.12392796,61.16487993,62.80767581
73.23241852,61.27680103,62.84626930
73.28151801,61.44253859,62.98327616
73.24153087,61.42034734,62.88561321
72.75471698,60.80231561,62.49764151
72.17013293,59.98209691,61.99667667
71.89311750,59.50718268,61.75332333
71.81721698,59.33308319,61.65962693
71.76597341,59.20808319,61.68106775
71.75664666,59.16187822,61.67667238
71.69907804,59.00718268,61.56207118
71.74442539,59.07482847,61.67002573
71.81593053,59.16241424,61.71365780
71.81753859,59.14815609,61.73327616
71.73520583,59.06132075,61.63443396
71.67088336,58.95068611,61.58619211
71.67527873,58.97073328,61.60752573
71.78237564,59.07096913,61.68782161
71.87843053,59.19082333,61.72319897
72.01918954,59.35645369,61.89504717
72.13153945,59.50568182,61.99217410
72.18825043,59.63700686,62.02808748
72.30864065,59.79877787,62.15233705
72.38818611,59.91155660,62.20872642
72.48359777,60.06250000,62.26940395
72.55703259,60.16809605,62.29459691
72.64826329,60.31936106,62.39140223
72.73349057,60.45904803,62.48627787
72.80349485,60.56957547,62.53569897
72.94178816,60.74431818,62.62939537
73.02883791,60.87875214,62.68128216
73.08179674,60.98852916,62.72116209
73.22545026,61.17913808,62.81807461
73.35045026,61.34358919,62.95272298
73.42195540,61.49206690,62.98584906
73.11888937,61.13539880,62.67742281
72.43524871,60.24271012,62.22684391
71.92313465,59.48981561,61.74003002
71.75000000,59.13572041,61.60141509
71.65791166,59.02176244,61.58243997
71.65598199,58.92913808,61.59058748
71.58876501,58.79931389,61.53237564
71.53387650,58.66295026,61.44897084
71.54341767,58.69843482,61.49539022
71.65169383,58.79663379,61.58822899
71.60741852,58.73477702,61.52079760
71.54749142,58.64397513,61.42613636
71.53087479,58.61599485,61.44103774
71.57300600,58.66970412,61.48981561
71.70711835,58.81153516,61.61963979
71.79963551,58.95551029,61.66863208
71.92517153,59.12628645,61.80381647
72.04792024,59.29834906,61.86503002
72.15823328,59.45218696,61.98091767
72.26468696,59.58329760,62.06550172
72.36620926,59.72041166,62.10720412
72.40683962,59.83801458,62.21451544
72.47545026,59.99217410,62.29320326
72.60838336,60.15233705,62.30156518
72.72298456,60.30789022,62.48027444
72.87017581,60.46408662,62.55499571
72.99228130,60.64000858,62.64729846
73.08158233,60.80070755,62.74346055
73.18867925,60.97898799,62.81518010
73.32579331,61.15190823,62.91477273
73.40180103,61.27294168,63.00471698
73.51157804,61.44018010,63.09905660
73.62467839,61.63046741,63.14504717
73.71344340,61.76811750,63.21494425
73.78934391,61.92785163,63.30306604
73.88475557,62.09766295,63.37360635
73.97662950,62.24635506,63.48606346
74.16069897,62.38775729,63.63818611
74.19028731,62.51211407,63.69135935
74.30403087,62.67667238,63.78430532
74.41112779,62.85109348,63.87274871
74.43589194,62.93846484,63.89322470
73.91895369,62.31603774,63.41852487
73.12939537,61.25010720,62.75310892
72.62103345,60.49924957,62.38282590
72.42988851,60.13572041,62.20154374
72.39976415,60.01404374,62.12939537
72.38025300,59.93213979,62.17420669
72.26179245,59.73113208,62.05638937
72.18996569,59.56903945,61.99142367
72.19854202,59.56539451,62.02615780
72.19478988,59.56228559,61.99410377
72.16005575,59.48445540,61.97909520
72.11385077,59.37950257,61.94746998
72.05081475,59.29738422,61.86899657
72.07568611,59.29245283,61.93160377
72.12875214,59.37382075,61.84659091
72.27765866,59.56689537,61.97920240
72.39097341,59.70658233,62.13904374
72.51608062,59.85741852,62.21505146
72.61792453,59.99378216,62.34562607
72.74442539,60.20197256,62.37993139
72.82450686,60.30756861,62.46558748
72.90598199,60.42570755,62.54942110
72.95593911,60.53741424,62.61653087
73.04727702,60.67077616,62.63454117
73.12006861,60.87993139,62.73220412
73.26865352,61.00278731,62.82011149
73.35270154,61.14772727,62.94275300
73.47770154,61.30210120,63.06067753
73.58608491,61.45551029,63.09573328
73.69018010,61.59669811,63.19961407
73.81325043,61.82161235,63.34283877
73.93267581,61.98370497,63.41059177
74.05746141,62.15287307,63.54695540
74.12671527,62.29266724,63.58404803
74.21462264,62.43031732,63.68181818
74.29716981,62.56668096,63.73563465
74.38604202,62.72394940,63.78548456
74.52583619,62.90641081,63.89440395
74.60945540,63.01833190,63.98702830
74.72362779,63.19704117,64.12178388
74.79684820,63.33136792,64.19822041
74.88336192,63.50385935,64.33190395
74.69018010,63.29588336,64.10763293
73.91241424,62.34809177,63.38454117
73.26865352,61.43546312,62.89129503
73.02626501,60.95465266,62.65984134
72.94704117,60.75364494,62.60484563
72.92742281,60.68128216,62.65962693
72.89204545,60.57322041,62.59637650
72.76039880,60.36974700,62.40533877
72.71022727,60.29384648,62.35752573
72.75128645,60.28301887,62.37371355
72.73831475,60.27883791,62.40448113
72.67367067,60.16916810,62.33704974
72.61310034,60.07129074,62.31121355
72.55606775,60.00846913,62.28870069
72.62960978,60.03848628,62.33565609
72.71933962,60.14772727,62.40030017
72.83404803,60.29995712,62.47362779
72.92978130,60.42570755,62.51897513
73.03130360,60.55253002,62.60977702
73.12478559,60.69704117,62.69275300
73.19296741,60.79759863,62.72984563
73.27294168,60.95690395,62.80746141
73.38432676,61.09659091,62.90190823
73.43685678,61.19929245,62.96580189
73.57407804,61.36996141,63.13539880
73.61996141,61.45936964,63.11931818
73.68632075,61.59605489,63.19060892
73.80789022,61.75214408,63.29373928
73.91380789,61.88743568,63.36106346
74.01725986,62.07815180,63.48509863
74.07900943,62.18557033,63.57021870
74.21408662,62.38261149,63.63175386
74.28280446,62.52444254,63.70283019
74.36470840,62.64515437,63.79652659
74.43835763,62.75525300,63.83093911
74.53419811,62.91777444,63.94693396
74.65876930,63.05306604,64.02026158
74.77465695,63.22062607,64.14708405
74.84444683,63.35259434,64.17506432
74.91552316,63.48584906,64.25879074
74.96751715,63.60945540,64.35752573
75.08490566,63.77036878,64.46226415
74.93042453,63.60087907,64.31292882
74.20004288,62.72148370,63.62199828
73.52669383,61.76597341,63.07943825
73.24485420,61.27444254,62.83319039
73.19478988,61.05392367,62.74967839
73.18374786,60.96719554,62.76908233
73.14204545,60.87553602,62.75889794
73.05349485,60.68106775,62.55971269
73.05338765,60.65222985,62.67238422
73.04963551,60.67313465,62.66155660
73.05585334,60.62703688,62.63068182
72.90748285,60.40490995,62.47051887
72.87231990,60.37081904,62.45486707
72.88840051,60.36931818,62.47459262
72.93117496,60.39794168,62.53001715
72.99592624,60.45754717,62.51758148
73.07343482,60.61138508,62.61567324
73.23895798,60.80092196,62.79427530
73.31828902,60.96065609,62.91434391
73.44457547,61.07665094,62.95679674
73.49195969,61.18342624,62.93171098
73.61395798,61.35023585,63.08694254
73.70240137,61.44018010,63.14686964
73.78655660,61.60623928,63.20808319
73.86138508,61.72523585,63.29963551
73.95636792,61.87853774,63.37489280
74.04491852,62.01104202,63.46408662
74.14258148,62.16852487,63.56689537
74.24303173,62.33051029,63.65019297
74.32847341,62.44318182,63.69018010
74.44050172,62.61760292,63.82000429
74.55017153,62.74035163,63.86342196
74.61374357,62.88046741,63.93557033
74.69307461,63.06957547,64.02026158
74.79566895,63.16573756,64.09112350
74.92463551,63.33115352,64.20872642
75.01490137,63.50954117,64.35430961
75.08329760,63.63282590,64.37446398
75.20411664,63.78216123,64.51265009
75.29406089,63.89826329,64.55135077
75.05177959,63.64504717,64.33522727
74.27551458,62.68224700,63.60313036
73.68750000,61.76125643,63.13840051
73.42120497,61.23166810,62.87339194
73.32954545,61.03001715,62.84498285
73.33383362,60.97620069,62.86599485
73.27862350,60.82279160,62.82986707
73.14751286,60.62521441,62.64515437
73.12993139,60.60398799,62.68246141
73.16091338,60.59358919,62.69864923
73.15415952,60.55831904,62.75600343
73.13143225,60.48627787,62.66209262
73.09080189,60.44714837,62.65126501
73.06925386,60.38507719,62.58126072
73.15383791,60.48638508,62.68364065
73.25375214,60.61460120,62.73209691
73.36106346,60.76222127,62.79588336
73.47823756,60.93471269,62.88153945
73.66027015,61.14483276,63.00396655
73.76168525,61.31164237,63.16048456
73.85291595,61.44361063,63.24078045
73.93353345,61.59927101,63.29524014
74.05370926,61.75889794,63.43128216
74.11320755,61.90137221,63.47105489
74.16177101,62.03205403,63.45186535
74.29920669,62.17184820,63.56335763
74.39311750,62.34444683,63.65705403
74.50728988,62.49099485,63.79738422
74.59176672,62.64772727,63.87671527
74.70701115,62.81528731,63.94607633
74.86760292,63.00117925,64.08329760
74.93782161,63.15458834,64.17174099
75.08372642,63.33951544,64.29663379
75.22009005,63.50975557,64.43171098
75.28795026,63.68481990,64.50964837
75.31657376,63.81035592,64.49474700
75.44629074,63.99410377,64.65834048
75.55831904,64.12392796,64.75943396
75.63539880,64.30070755,64.82300600
75.76618782,64.48595626,64.95508148
75.83469125,64.59412521,64.99506861
75.95143654,64.76918954,65.10023585
75.83865780,64.67206261,65.03248285
75.11363636,63.76543739,64.38700686
74.39118782,62.76640223,63.74689108
74.07075472,62.11556604,63.41595197
73.94596913,61.81518010,63.34798456
73.94543310,61.73852916,63.26061321
73.92828045,61.65040738,63.21194254
73.86771012,61.53023156,63.12692967
73.82418525,61.40866209,63.12349914
73.84412521,61.40094340,63.11685249
73.82311321,61.38336192,63.17409949
73.77851630,61.31668096,63.13464837
73.68685678,61.17892367,63.03419811
73.62264151,61.11578045,62.99356775
73.67141938,61.17163379,63.07686535
73.79899228,61.29256003,63.13840051
73.94693396,61.45015009,63.25911235
74.06078473,61.61588765,63.28677101
74.15694683,61.77272727,63.40930532
74.27165523,61.95240137,63.44811321
74.33919383,62.06818182,63.50450257
74.40233705,62.19221698,63.61052744
74.47105489,62.28752144,63.68503431
74.49635506,62.40287307,63.67602916
74.62510720,62.56743139,63.80092196
74.69843482,62.69221698,63.84616209
74.80167238,62.86063465,63.95261578
74.89000858,62.98906518,64.04223842
75.02326329,63.16691681,64.16906089
75.07975986,63.29159520,64.23906518
75.20379503,63.44307461,64.34487564
75.27830189,63.56196398,64.39622642
75.39386792,63.77272727,64.50407376
75.44746998,63.86685249,64.58168954
75.54298885,64.02283448,64.69328902
75.63936535,64.17667238,64.76393654
75.74656947,64.32911664,64.88657804
75.79856346,64.42249142,64.89869211
75.84541166,64.60162950,64.98885077
75.95658233,64.71816038,65.04084477
76.01543739,64.87049743,65.10956261
76.12939537,65.02240566,65.16777444
75.93964408,64.78419811,65.01018439
75.12553602,63.75460978,64.27583619
74.38336192,62.70197256,63.71612350
74.10516724,62.13732847,63.33844340
73.99260292,61.85066467,63.21451544
74.01114923,61.75578902,63.27422813
73.99110206,61.65062178,63.24539022
73.88078902,61.46033448,63.09969983
73.85741852,61.41445111,63.15887650
73.86170669,61.38614923,63.12843053
73.86052744,61.37510720,63.15083619
73.76286449,61.21783877,63.01286449
73.67399228,61.10988422,62.97823756
73.64729846,61.07568611,62.95626072
73.68417667,61.12885935,63.02787307
73.77433533,61.24346055,63.09466123
73.91155660,61.40212264,63.15469554
74.02262007,61.56464408,63.25439537
74.14708405,61.70283019,63.35956261
74.23702830,61.84637650,63.45293739
74.28698542,61.94671955,63.50246569
74.39644082,62.10463122,63.57139794
74.45508148,62.22009005,63.61996141
74.54792024,62.34809177,63.68985849
74.62253431,62.51725986,63.80070755
74.68792882,62.62039022,63.85688250
74.77401372,62.75343053,63.96462264
74.87885935,62.89879931,64.00771870
74.97298456,63.01736707,64.08576329
75.03023156,63.16552316,64.15716123
75.16638079,63.32783019,64.32054031
75.25493139,63.48306175,64.34112350
75.35302316,63.65533877,64.43128216
75.39054460,63.80992710,64.52347770
75.53044597,63.96826758,64.65158662
75.60473842,64.08565609,64.64569039
75.67120497,64.23595626,64.78226844
75.77347770,64.38454117,64.86138508
75.85763293,64.50771870,64.95283019
75.93642796,64.61674528,64.96237136
76.02615780,64.78987993,65.07418525
75.97480703,64.80563894,65.02883791
75.36781732,63.99989280,64.45422384
74.57129074,62.90083619,63.82150515
74.13786449,62.12392796,63.37349914
74.00739708,61.75203688,63.15019297
73.96955403,61.60484563,63.18031732
73.96194254,61.56635935,63.19500429
73.89118782,61.44586192,63.14719125
73.83501286,61.33522727,63.06635935
73.86588765,61.36910377,63.15040738
73.86288593,61.34423242,63.09937822
73.76758148,61.22941681,62.97705832
73.66541595,61.09809177,62.91541595
73.63957976,61.05081475,62.91166381
73.69757719,61.08008148,62.97716552
73.74560463,61.17206261,63.01618782
73.92013293,61.37060463,63.16906089
74.02497856,61.50139365,63.23359777
74.14611921,61.66970412,63.30563894
74.26350772,61.87521441,63.43481990
74.33919383,62.01372213,63.50793310
74.45722556,62.18021012,63.59273156
74.54341767,62.34616209,63.68900086
74.56818182,62.44789880,63.75536021
74.68803602,62.58340480,63.80231561
74.79909949,62.75921955,63.91295026
74.85559605,62.91134220,63.98767153
74.95358062,63.06871784,64.04770583
75.05017153,63.22469983,64.16273585
75.18289022,63.43031732,64.30981990
75.29063036,63.58436964,64.36310034
75.40898370,63.75117925,64.49003002
75.50825472,63.91412950,64.54813465
75.58608491,64.10002144,64.66391509
75.71430103,64.29470412,64.80306604
75.82804460,64.46848199,64.89108062
75.85977702,64.54266724,64.91552316
75.92602916,64.71526587,64.94575472
76.05821184,64.87124786,65.10237993
76.17034734,65.04899228,65.18707118
76.26608062,65.19060892,65.26629503
76.28280446,65.28409091,65.30145798
75.76039880,64.67506432,64.85302316
75.01554460,63.65405232,64.18878645
74.48370497,62.83619211,63.70711835
74.29867067,62.43589194,63.50879074
74.28366209,62.34819897,63.49614065
74.27926672,62.29534734,63.49817753
74.21215695,62.13218268,63.38732847
74.14622642,62.00600343,63.35077187
74.15147942,61.98552744,63.31400086
74.17838765,62.00150086,63.37264151
74.14483276,61.95743997,63.33994425
74.03409091,61.82096913,63.21891081
73.91563036,61.68492710,63.14033019
73.94103774,61.67881647,63.18481990
74.01661664,61.74367496,63.27519297
74.09337479,61.85881218,63.31721698
74.21655232,62.05253002,63.39429674
74.31978988,62.14611921,63.53205403
74.39536878,62.31989708,63.61706690
74.46891081,62.42002573,63.67195540
74.56518010,62.56089194,63.77444254
74.62960978,62.66970412,63.74153087
74.66981132,62.76436535,63.85034305
74.73220412,62.86277873,63.92624357
74.79641938,62.96944683,63.95701115
74.90533877,63.11674528,64.06378645
74.98209691,63.24710549,64.12960978
75.06689537,63.39515437,64.24013722
75.12843053,63.51307890,64.27337050
75.22630789,63.63239708,64.35559605
75.26961835,63.76189966,64.35495283
75.39043739,63.94661235,64.49206690
75.43128216,64.01575901,64.55435249
75.52444254,64.15330189,64.60956261
75.54524014,64.28602058,64.67688679
75.65083619,64.42206261,64.77240566
75.73777873,64.53880789,64.83447684
75.85045026,64.72802316,64.97566467
75.96933962,64.87371355,65.06067753
75.98316895,64.94757719,65.09208834
76.01479417,65.03923671,65.07482847
76.11406518,65.20240137,65.14000858
75.74153087,64.72630789,64.80821184
74.81174957,63.65523156,64.13464837
74.28141081,62.75932676,63.58136792
74.04245283,62.30167238,63.34626930
73.99914237,62.10120069,63.27680103
73.94886364,62.00460978,63.26211407
73.88550600,61.80145798,63.15158662
73.77476415,61.60774014,63.05563894
73.73799314,61.53816467,63.04438250
73.70433105,61.47705832,63.06089194
73.62875214,61.34937822,62.92313465
73.51168525,61.16284305,62.82064751
73.41884648,61.01404374,62.74260292
73.41680961,61.01415094,62.77422813
73.45947684,61.09090909,62.79159520
73.56153516,61.18889365,62.90437393
73.65651801,61.34305317,62.95647513
73.74356775,61.42945969,63.05188679
73.81496569,61.54159520,63.09391081
73.83962264,61.62135506,63.13250429
73.90480274,61.74035163,63.15244425
74.00343053,61.88014580,63.26307890
74.07300600,61.97737993,63.32750858
74.15126501,62.06485849,63.38454117
74.23509863,62.22995283,63.47159091
74.31046312,62.34948542,63.54716981
74.35720412,62.43331904,63.58833619
74.43449828,62.59208834,63.68063894
74.52615780,62.70647513,63.70668954
74.58619211,62.82332762,63.81882504
74.69543310,63.00418096,63.93535592
74.72995283,63.10237993,63.93321184
74.82225557,63.25214408,64.02937393
74.88711407,63.36031304,64.07322041
75.01104202,63.49946398,64.22394940
75.10581046,63.63904374,64.31378645
75.17924528,63.75836192,64.34562607
75.20508148,63.88411235,64.40340909
75.32204117,64.02615780,64.46355060
75.44554031,64.20497427,64.61192110
75.52433533,64.33329760,64.69564751
75.61738851,64.44907804,64.71923242
75.65115780,64.54116638,64.81089194
75.25782590,64.11588765,64.48402659
74.45486707,63.07364923,63.74624786
73.85441681,62.14258148,63.20518868
73.59369640,61.60999142,62.93653516
73.49624786,61.36803173,62.84401801
73.44757719,61.26061321,62.85216552
73.41831046,61.15051458,62.73006003
73.31871784,61.01104202,62.67099057
73.33694254,60.99088765,62.76554460
73.36331475,61.01404374,62.75396655
73.26672384,60.90716123,62.68803602
73.16509434,60.73220412,62.57847341
73.07654374,60.60077187,62.47813036
73.06089194,60.55596055,62.48284734
73.10452401,60.57236278,62.54470412
73.16895369,60.64922813,62.52680103
73.23895798,60.73274014,62.65683962
73.33415523,60.83179674,62.72330617
73.36695969,60.90105060,62.76189966
73.40147942,61.00782590,62.73252573
73.44854202,61.12221269,62.84819897
73.54470412,61.22009005,62.88604202
73.63647084,61.34744854,62.93792882
73.75503859,61.52476415,63.07493568
73.89772727,61.68460549,63.16230703
73.98263293,61.84305317,63.26500858
74.05831904,61.96505146,63.32847341
74.16916810,62.14965695,63.40844768
74.25160806,62.27519297,63.50868353
74.37446398,62.41348628,63.59701973
74.41209262,62.50578902,63.64172384
74.52658662,62.69232419,63.75064322
74.58940823,62.80124357,63.82054031
74.72384220,63.00407376,63.92195540
74.84916381,63.19757719,64.07150515
74.94907804,63.34744854,64.13153945
75.06057033,63.53312607,64.26468696
75.16466552,63.68053173,64.31132075
75.21012007,63.79352487,64.38786449
75.30649657,63.95701115,64.45400943
75.36910377,64.09959262,64.54470412
75.12424957,63.81357204,64.28634220
74.31689537,62.75493139,63.56946827
73.59927101,61.68932247,62.90994854
73.31989708,61.13143225,62.68246141
73.23445540,60.85516724,62.59015866
73.21312178,60.79395369,62.59777015
73.13593482,60.65587479,62.56367925
73.02883791,60.46858919,62.43771441
72.98359777,60.36031304,62.44586192
72.95261578,60.35398799,62.41359348
72.95283019,60.31861063,62.33940823
72.88336192,60.21719554,62.34069468
72.77647942,60.04813465,62.26018439
72.75117925,60.00117925,62.19822041
72.78323328,60.01993997,62.22234134
72.93074614,60.18246141,62.33276158
73.05253002,60.35677530,62.44318182
73.11245712,60.48445540,62.60366638
73.25096484,60.66970412,62.60345197
73.31239280,60.79652659,62.72384220
73.49056604,60.96247856,62.85698971
73.58254717,61.10441681,62.89665523
73.66970412,61.21515866,62.97352058
73.73466981,61.35988422,63.02111921
73.80928388,61.48231132,63.06099914
73.88936535,61.63807890,63.16873928
73.97834477,61.74592624,63.18932247
74.11417238,61.93471269,63.30070755
74.18417667,62.06196398,63.34755575
74.29491852,62.20400943,63.47609348
74.39472556,62.37843053,63.54952830
74.48231132,62.52090480,63.63689966
74.54792024,62.65876930,63.70229417
74.65062178,62.83737136,63.79834906
74.75343053,62.95025729,63.91102058
74.85548885,63.12328473,64.02101201
74.95551029,63.28955832,64.09401801
75.02369211,63.42141938,64.18900086
75.06764580,63.53291166,64.23381218
75.24742710,63.75128645,64.32418525
75.28612779,63.85430961,64.42785163
75.34723413,63.97652230,64.47802316
75.48820755,64.17581475,64.57804460
75.22523585,63.93106775,64.35902659
74.36663808,62.75836192,63.61213551
73.61888937,61.65726844,63.00568182
73.29448971,61.05199400,62.65383791
73.16423671,60.72727273,62.53023156
73.13614923,60.63786449,62.49892796
73.11985420,60.55660377,62.46162093
73.05821184,60.45015009,62.47030446
73.03259005,60.33340480,62.43674957
73.03323328,60.32954545,62.41487993
73.01951115,60.32697256,62.37264151
72.93846484,60.15180103,62.32675815
72.80424528,60.00300172,62.21483705
72.79363208,59.96816038,62.24560463
72.81635935,59.97823756,62.23831475
72.95765437,60.13218268,62.30778302
73.05874786,60.26822470,62.46590909
73.16230703,60.43117496,62.54180961
73.30617496,60.62714408,62.66187822
73.36663808,60.76114923,62.68953688
73.52347770,60.92935249,62.80049314
73.57632933,61.07847341,62.81260720
73.64000858,61.16166381,62.93267581
73.74710549,61.31957547,62.99281732
73.82600772,61.45379503,63.06421527
73.86899657,61.54609777,63.10205832
74.00407376,61.71033448,63.20411664
74.09423242,61.86503002,63.26211407
74.21258576,62.00696827,63.38196827
74.24003002,62.19221698,63.36117067
74.37081904,62.32000429,63.52347770
74.49421098,62.48820755,63.57825901
74.57825901,62.64215266,63.69039451
74.64536878,62.77315609,63.77165523
74.74238851,62.92484991,63.85924099
74.85473842,63.09894940,64.00525300
74.93792882,63.23981561,64.06850343
75.05188679,63.39129503,64.18782161
75.12768010,63.49989280,64.26061321
75.19489708,63.65887650,64.33426244
75.26275729,63.77540738,64.40834048
75.38700686,63.92131218,64.45240137
75.45454545,64.05896226,64.51157804
75.03752144,63.59176672,64.15158662
74.18835763,62.40984134,63.44307461
73.46623070,61.39762007,62.80370926
73.16981132,60.84283877,62.51114923
73.12081904,60.57600772,62.39697684
73.10977702,60.50771870,62.43524871
73.12231990,60.46858919,62.45765437
73.06721698,60.41713122,62.40576758
73.07783019,60.39236707,62.40887650
73.10280875,60.39397513,62.50289451
73.03344768,60.26843911,62.44168096
72.85270154,60.08983705,62.28494854
72.79288165,59.95561750,62.21676672
72.79159520,59.91745283,62.20283019
72.83694254,59.97930961,62.25846913
72.98842196,60.15201544,62.36406518
73.12071184,60.32397084,62.46505146
73.22587907,60.47159091,62.57300600
73.32772298,60.64654803,62.60623928
73.39343911,60.78537736,62.65716123
73.49431818,60.88304031,62.73359777
73.58308319,61.01254288,62.84208834
73.70572470,61.19521870,62.92334906
73.72770154,61.26951115,62.95926244
73.76586621,61.38314751,62.95668954
73.85849057,61.52937393,63.09991424
74.00182247,61.68857204,63.22780875
74.11042024,61.84326758,63.26629503
74.22427101,62.00257290,63.36063465
74.30124357,62.15072899,63.41509434
74.42024014,62.35077187,63.52594340
74.50000000,62.46783877,63.59326758
74.60816895,62.63496998,63.71194254
74.72255575,62.78537736,63.82590051
74.84530446,63.01618782,63.92828045
74.91981132,63.15994854,64.02122642
75.00000000,63.31625214,64.14408233
75.07375643,63.44275300,64.19361063
75.19457547,63.60538165,64.26211407
75.16337907,63.60634648,64.29588336
74.51768868,62.82064751,63.70165094
73.68031732,61.58404803,62.95325901
73.13507719,60.72469983,62.41187822
72.90984134,60.27862350,62.22201973
72.86363636,60.10162950,62.21312178
72.85463122,60.05424528,62.23113208
72.80767581,59.93138937,62.18846484
72.77337050,59.89365352,62.16059177
72.73027444,59.85913379,62.12564322
72.77937393,59.89000858,62.20325901
72.72116209,59.81207118,62.13625643
72.64408233,59.66831046,62.02637221
72.58876501,59.60184391,62.01779588
72.61042024,59.58340480,62.04202401
72.68374786,59.66295026,62.11513722
72.84777015,59.90566038,62.30445969
72.95840480,60.07740137,62.38700686
73.12156947,60.29524014,62.44511149
73.26157804,60.50471698,62.54674099
73.34884220,60.64172384,62.62542882
73.45840480,60.78023156,62.70475986
73.54095197,60.92238422,62.76179245
73.61192110,61.07697256,62.88014580
73.69318182,61.18096055,62.96376501
73.82193396,61.36738851,62.99238851
73.86106346,61.49721269,63.08319039
73.98198971,61.66144940,63.20540309
74.13111063,61.86138508,63.28998714
74.23359777,62.01897513,63.37424957
74.34541166,62.19361063,63.50128645
74.49271012,62.39751286,63.62092624
74.54363208,62.54470412,63.66605918
74.61192110,62.67710120,63.70733276
74.67249142,62.79384648,63.74774871
74.85999142,63.03451973,63.98006003
74.97041166,63.23799314,64.05295883
75.08865780,63.40855489,64.16798885
75.16916810,63.54438250,64.22577187
75.24946398,63.69307461,64.31121355
75.30939108,63.86985420,64.39150943
75.40030017,63.98349057,64.48070326
75.55510292,64.17238422,64.61620926
75.43278302,64.10816895,64.51254288
74.57933105,63.02722985,63.79952830
73.80671098,61.83544168,63.05499571
73.30896226,61.05596055,62.57246998
73.14987136,60.65844768,62.37885935
73.12982419,60.54320326,62.46708834
73.09980703,60.46430103,62.43406947
73.05478130,60.36288593,62.38282590
72.99957118,60.28795026,62.35313036
73.03280446,60.28623499,62.38893654
73.04813465,60.27240566,62.42420669
72.97030446,60.18364065,62.35966981
72.85291595,60.02015437,62.17710120
72.80939108,59.93460549,62.18267581
72.81893225,59.90769726,62.20057890
72.90855489,60.01168525,62.26768868
73.02358491,60.19210978,62.36213551
73.13797170,60.33222556,62.46794597
73.27219125,60.54899228,62.57943825
73.41327187,60.72695111,62.66005575
73.50782590,60.88282590,62.76575901
73.60495283,61.04256003,62.83780017
73.65265866,61.16059177,62.90501715
73.75825472,61.31292882,62.96901801
73.86653087,61.45593911,63.01211407
73.93428388,61.59723413,63.10280875
74.00857633,61.72770154,63.14065180
74.12607204,61.87328473,63.28344768
74.17828045,62.01168525,63.29620497
74.30960549,62.18289022,63.44339623
74.37285592,62.32525729,63.50707547
74.53173242,62.52808748,63.68653516
74.60162950,62.66552316,63.69103774
74.71676672,62.84133791,63.84884220
74.83029588,62.99839194,63.91841767
74.94886364,63.19907804,64.04792024
74.97963122,63.31089194,64.05981990
75.13271870,63.50664666,64.20025729
75.20368782,63.60827616,64.29159520
75.23960120,63.69393225,64.35302316
75.38411235,63.91648799,64.43449828
75.49656947,64.07825901,64.54459691
75.59691252,64.26050600,64.64215266
75.46312178,64.13936535,64.52036878
74.65630360,63.15994854,63.83254717
73.84573328,61.95100772,63.07858062
73.35988422,61.15190823,62.68449828
73.20551029,60.78076758,62.52369211
73.20047170,60.68674957,62.49378216
73.18953688,60.60570326,62.49335334
73.16262864,60.51683105,62.45572470
73.14011578,60.50075043,62.48081046
73.17849485,60.51597341,62.50782590
73.16380789,60.47641509,62.48156089
73.05199400,60.35881218,62.36288593
72.91991852,60.13261149,62.20229417
72.82547170,60.01114923,62.12178388
72.84380360,60.02197684,62.13711407
72.91873928,60.12328473,62.22169811
73.04995712,60.27615780,62.38271870
73.17292024,60.43857204,62.44457547
73.29052316,60.61578045,62.59476844
73.40351630,60.79931389,62.64901372
73.50611063,60.92249142,62.73895798
73.53966552,61.02058319,62.78923671
73.66112779,61.18042453,62.86310034
73.73391938,61.29009434,62.89322470
73.79620497,61.40147942,62.94886364
73.87821612,61.55424528,63.04524014
73.93889365,61.64365352,63.11106346
74.07129074,61.82600772,63.24882075
74.17785163,61.95958405,63.34551887
74.25793310,62.12650086,63.38807890
74.35934820,62.29009434,63.46912521
74.48799314,62.45197256,63.55360206
74.56775300,62.60184391,63.63807890
74.63786449,62.76329331,63.75986278
74.74346055,62.90469554,63.83951544
74.83683533,63.10120069,63.93674957
74.92774443,63.20926244,64.03301887
74.99549743,63.36513722,64.07740137
75.11835334,63.55660377,64.21376501
75.23842196,63.69425386,64.29159520
75.25439537,63.76318611,64.34208834
74.56346484,62.99099485,63.66573756
73.71290738,61.78795026,62.99742710
73.12832333,60.87274871,62.43213979
72.88507719,60.35012864,62.22084048
72.82118353,60.15394511,62.16638079
72.81828902,60.10623928,62.19286021
72.74957118,59.99935678,62.13078902
72.72780875,59.94243139,62.13861492
72.76018439,59.95207976,62.13904374
72.79352487,59.95947684,62.19146655
72.75493139,59.91766724,62.13850772
72.62510720,59.74024443,62.00225129
72.54331046,59.59927101,61.93353345
72.56089194,59.60891938,62.01136364
72.63421955,59.70776158,62.01243568
72.80381647,59.89000858,62.16487993
72.91627358,60.08672813,62.27004717
73.07043310,60.29813465,62.38882933
73.19468268,60.48006003,62.48499142
73.30102916,60.63786449,62.64022298
73.38078902,60.81989708,62.62049743
73.51918954,61.00696827,62.75825472
73.57300600,61.13818611,62.76211407
73.68825043,61.27680103,62.90137221
73.77433533,61.40426672,62.96215695
73.87049743,61.51329331,63.02358491
73.99131647,61.72737993,63.10366638
74.07868782,61.90158662,63.24742710
74.17399228,62.08093911,63.30263722
74.30853345,62.27294168,63.45111492
74.36342196,62.38357633,63.47512864
74.48938679,62.58565609,63.61910377
74.60838336,62.72394940,63.70508148
74.67602916,62.89343911,63.77058319
74.82568611,63.08683533,63.91080617
74.89751286,63.22469983,64.02958834
75.03602058,63.42195540,64.13014580
75.06850343,63.58072470,64.18728559
75.17206261,63.73788593,64.26275729
75.30885506,63.91091338,64.38454117
75.38153945,64.02755146,64.43149657
75.50846913,64.21858919,64.55006432
75.57772298,64.35302316,64.62017581
75.08319039,63.73799314,64.18953688
74.12274871,62.52798027,63.41691681
73.48338336,61.44629074,62.75246569
73.15951973,60.85184391,62.45025729
73.05960549,60.61749571,62.36042024
73.06207118,60.56099914,62.38625643
73.06185678,60.52026158,62.43364065
73.01157804,60.39772727,62.28066038
73.00310892,60.35666810,62.29127358
73.00782590,60.37081904,62.25846913
72.99013722,60.34541166,62.30124357
72.87424957,60.19671955,62.23552744
72.75954117,59.99388937,62.14290309
72.73810034,59.95122213,62.10666810
72.75428816,59.99528302,62.12735849
72.89108062,60.15951973,62.25686106
73.02369211,60.30220840,62.33222556
73.14140223,60.46966123,62.36888937
73.26039880,60.64461835,62.51361492
73.40147942,60.81635935,62.65105060
73.47148370,60.98048885,62.75385935
73.56035592,61.12081904,62.79063036
73.65330189,61.26865352,62.86556604
73.73306175,61.37199828,62.94725557
73.78516295,61.50150086,62.98306175
73.85763293,61.65716123,63.00771870
73.93063894,61.79534734,63.12146226
74.04834906,61.93921527,63.20379503
74.15566038,62.12885935,63.32268439
74.20958405,62.22373499,63.37982419
74.32568611,62.42216981,63.52487136
74.44897084,62.56775300,63.62928816
74.57579331,62.76168525,63.68299743
74.65255146,62.88282590,63.75911235
74.77208405,63.04931389,63.89751286
74.84626930,63.20733276,63.92667238
74.92602916,63.37178388,64.04674099
75.03527015,63.51168525,64.14161664
75.11567324,63.65083619,64.23724271
75.23627787,63.84927101,64.39000858
75.34594768,64.01211407,64.42763722
75.33887221,64.05713979,64.44779160
74.63786449,63.21183533,63.82225557
73.74185249,62.00021441,63.02036878
73.13389794,61.03441252,62.47609348
72.88164666,60.54867067,62.22062607
72.82075472,60.35484563,62.18717839
72.82086192,60.29170240,62.16541595
72.79909949,60.22384220,62.16209262
72.78752144,60.13164666,62.08597770
72.79373928,60.12478559,62.16016295
72.77122642,60.12542882,62.18717839
72.71526587,60.03473413,62.12435678
72.56196398,59.78795026,61.89879931
72.46537307,59.65598199,61.83093911
72.47191252,59.62349914,61.88700686
72.48552744,59.67870926,61.96644511
72.60205832,59.81539451,62.03259005
72.77508576,60.01929674,62.12307033
72.91273585,60.20647513,62.21033448
73.03334048,60.38239708,62.39097341
73.09659091,60.50010720,62.39097341
73.18814322,60.64611921,62.44950686
73.25964837,60.78023156,62.52915952
73.33512007,60.88614923,62.60291595
73.40984134,61.02433533,62.67141938
73.50921955,61.16402230,62.75278731
73.60087907,61.31164237,62.84466123
73.70743997,61.47502144,62.94393225
73.79438250,61.62392796,63.02294168
73.92281304,61.78237564,63.09155232
73.98177530,61.90201544,63.14729846
74.08115352,62.07257719,63.28612779
74.18321184,62.22201973,63.35838336
74.29706261,62.38990137,63.50718268
74.41198542,62.56614494,63.57257719
74.52690823,62.75525300,63.69564751
74.63271870,62.92195540,63.72105489
74.69200257,63.05027873,63.79427530
74.76618782,63.17935249,63.89997856
74.88700686,63.31603774,64.03966552
74.99946398,63.51189966,64.16241424
74.98016724,63.53612779,64.12810892
74.27508576,62.70840480,63.50857633
73.40651801,61.51586621,62.77058319
72.79256003,60.56185678,62.15233705
72.57547170,60.09198113,61.91873928
72.46001286,59.83887221,61.92313465
72.48381218,59.81421527,61.92206261
72.42785163,59.73767153,61.88132504
72.43717839,59.66831046,61.88271870
72.43514151,59.65448113,61.87103345
72.44018010,59.64258148,61.87264151
72.36996141,59.53912950,61.79341767
72.28741424,59.39504717,61.70808319
72.21601630,59.29341767,61.65212264
72.16863208,59.23895798,61.60602487
72.23274014,59.31099914,61.68321184
72.39879931,59.52186964,61.89837050
72.52669383,59.69221698,61.94521870
72.65555317,59.89676244,62.03376930
72.77669383,60.05585334,62.13003859
72.89922813,60.25879074,62.22855918
72.99774871,60.45915523,62.34058748
73.08051029,60.55370926,62.37231990
73.16155660,60.67806604,62.42141938
73.24860635,60.84165952,62.47995283
73.32750858,60.98767153,62.60538165
73.44436106,61.15941252,62.68106775
73.57075472,61.33940823,62.82418525
73.65748285,61.47009005,62.90791166
73.75364494,61.62285592,63.00514580
73.83351201,61.79063036,63.04513293
73.93814322,61.97394940,63.18428388
74.09616209,62.14225986,63.31507290
74.14279588,62.29524014,63.36856775
74.29041595,62.52948113,63.44736278
74.39504717,62.67999571,63.58715695
74.46333619,62.82139794,63.64279588
74.56110635,62.95926244,63.76457976
74.68181818,63.16895369,63.87500000
74.77465695,63.29588336,63.96933962
74.85849057,63.46655232,64.06024871
74.96237136,63.63089623,64.10623928
75.06260720,63.74721269,64.19425386
74.48831475,63.11996141,63.68278302
73.57515009,61.91948971,62.92828045
72.95207976,60.93385506,62.30949828
72.66723842,60.42259863,62.15458834
72.60945540,60.22416381,62.04684820
72.58662093,60.15951973,62.01543739
72.59090909,60.11749571,62.05060034
72.53923671,60.01457976,62.00750429
72.55724700,59.99742710,62.00107204
72.60527444,60.03773585,61.98327616
72.53816467,59.95883362,61.94339623
72.40737564,59.73177530,61.78301887
72.30992710,59.63818611,61.71858919
72.27079760,59.60891938,61.76629503
72.34659091,59.67077616,61.77905232
72.42699400,59.75310892,61.82043310
72.57986707,59.97373499,61.99839194
72.71237136,60.09637650,62.08694254
72.80713979,60.23788593,62.11824614
72.89997856,60.39912093,62.20915523
72.95915523,60.54127358,62.27755146
73.06635935,60.67442110,62.34509005
73.17967410,60.84927101,62.48799314
73.23295455,60.98016724,62.54213122
73.28709262,61.10999142,62.52015437
73.36921098,61.22813036,62.65137221
73.47352058,61.36738851,62.74131647
73.57043310,61.51468696,62.85002144
73.64333190,61.65748285,62.88582762
73.70926244,61.76029160,62.96891081
73.83994425,61.93514151,63.06721698
73.98670669,62.14493997,63.16573756
74.05896226,62.29459691,63.28044597
74.16091338,62.48231132,63.37553602
74.26983276,62.64483276,63.49517581
74.32364923,62.73810034,63.56550172
74.40812607,62.87532161,63.61974700
74.50728988,63.05253002,63.73327616
74.60645369,63.21065609,63.80027873
74.72695111,63.41048456,63.96001286
74.76018439,63.46665952,63.90898370
74.81442967,63.57750858,64.04749142
74.38915094,63.14150943,63.63143225
73.47963122,61.99099485,62.85720412
72.89011578,61.07086192,62.29105918
72.56475129,60.48156089,62.01093482
72.42785163,60.20186535,61.87682247
72.41455832,60.09637650,61.85259434
72.43117496,60.07847341,61.86771012
72.42227702,60.02240566,61.83415523
72.41670240,59.96065609,61.84680532
72.40222985,59.96355060,61.85205832
72.32257719,59.86288593,61.79534734
72.21376501,59.72705832,61.66638079
72.13539880,59.54470412,61.54684820
72.09712693,59.51629503,61.55917667
72.13475557,59.58222556,61.59380360
72.26961835,59.75568182,61.77840909
72.44328902,59.94757719,61.88454117
72.55746141,60.12114065,61.96312178
72.71183533,60.33404803,62.09326758
72.81003431,60.50771870,62.17216981
72.97630789,60.71301458,62.32257719
73.08737136,60.88561321,62.43021012
73.15212264,61.01361492,62.51232847
73.28301887,61.22770154,62.58254717
73.32686535,61.32515009,62.62532161
73.42431389,61.46226415,62.72598628
73.53194683,61.62843053,62.81346484
73.59905660,61.73477702,62.86320755
73.69146655,61.90994854,62.94918525
73.79524014,62.08919383,63.10870497
73.94425386,62.30231561,63.20304460
73.99764151,62.38893654,63.28816467
74.05220840,62.49045883,63.32922384
74.13593482,62.64751286,63.40866209
74.28795026,62.83040309,63.53623499
74.36181389,62.97223413,63.58265437
74.52208405,63.20990566,63.77851630
74.60087907,63.34659091,63.83994425
74.66037736,63.47577187,63.93138937
74.72148370,63.54180961,63.98134648
74.31239280,63.11449400,63.54545455
73.47309177,62.05006432,62.89847770
72.78955832,61.07557890,62.27798027
72.51125643,60.50996998,61.98252573
72.41627358,60.29513293,61.90169383
72.43321184,60.23424099,61.89654803
72.40759005,60.19168096,61.88700686
72.42806604,60.15190823,61.92334906
72.46773156,60.17999571,61.91798885
72.51972556,60.26479417,61.97941681
72.48059605,60.16305746,61.92699400
72.30338765,59.96998285,61.78216123
72.25932676,59.83501286,61.71901801
72.23306175,59.80960549,61.75836192
72.30842624,59.87382075,61.73081046
72.43760720,60.02422813,61.88614923
72.56635935,60.17828045,61.95722556
72.71430103,60.35409520,62.06207118
72.79427530,60.48509863,62.14054460
72.88861492,60.66798885,62.26683105
72.97394940,60.79084477,62.30949828
73.10237993,60.96601630,62.42442110
73.15791166,61.12382075,62.48895798
73.27315609,61.28880789,62.57461407
73.36149228,61.43782161,62.66723842
73.43256861,61.56164237,62.76447256
73.51951115,61.72362779,62.80831904
73.64944254,61.89794168,62.95840480
73.76104202,62.07772298,63.07450686
73.83544168,62.25503859,63.14033019
73.96901801,62.44371784,63.23659949
74.03098199,62.55049314,63.33737136
74.15308748,62.75042882,63.45561750
74.34337479,62.95615352,63.59037307
74.47287736,63.16391509,63.67184820
74.50868353,63.31614494,63.74024443
74.62274871,63.45486707,63.83501286
74.72491424,63.61985420,63.95197256
74.82697256,63.76329331,64.03644940
75.00868353,64.04020154,64.23681389
74.85548885,63.89515437,64.07204117
73.87510720,62.75439537,63.22502144
72.99807033,61.56089194,62.48198971
72.54674099,60.75621784,62.00514580
72.37124786,60.39075901,61.80413808
72.40426672,60.30285163,61.87703688
72.47427101,60.29095197,61.94103774
72.40844768,60.19596913,61.88057461
72.35270154,60.07461407,61.78902230
72.37210549,60.07579331,61.76575901
72.38175386,60.07129074,61.83908662
72.32397084,60.01114923,61.79073756
72.21676672,59.81989708,61.67881647
72.13990137,59.72437822,61.56271441
72.10945540,59.70465266,61.57279160
72.23091767,59.79974271,61.69532590
72.36331475,59.96687393,61.77519297
72.50439537,60.16756003,61.92699400
72.54095197,60.28066038,61.95304460
72.71655232,60.50278731,62.08597770
72.82418525,60.65994854,62.21955403
72.88614923,60.78023156,62.24056604
73.03066038,60.97620069,62.38915094
73.07579331,61.09873499,62.42506432
73.17956690,61.23209691,62.54899228
73.24678388,61.35463122,62.59562607
73.32986707,61.52883791,62.59208834
73.42935249,61.67506432,62.70851201
73.51768868,61.84358919,62.82536449
73.65480274,62.01886792,62.91402230
73.77926672,62.17484991,63.01018439
73.91852487,62.38400515,63.18760720
74.06882504,62.59090909,63.28816467
74.17881647,62.79030875,63.43653516
74.27551458,62.96312178,63.52036878
74.37692967,63.10291595,63.62135506
74.48756432,63.27744425,63.70347341
74.60463122,63.47555746,63.80831904
74.67292024,63.63368353,63.87553602
74.80596055,63.80553173,64.01693825
74.83190395,63.89108062,64.02851630
74.93514151,64.04063036,64.14697684
74.38314751,63.42367067,63.62500000
73.42399228,62.21108491,62.88432676
72.75975557,61.15147942,62.21344340
72.51704545,60.66498714,61.90190823
72.43181818,60.38765009,61.83812178
72.43825043,60.29266724,61.84498285
72.37714408,60.21891081,61.82675815
72.35774014,60.12768010,61.78655660
72.37596484,60.13153945,61.79663379
72.41723842,60.17967410,61.81861063
72.34048027,60.13550600,61.78816467
72.25868353,59.96880360,61.65126501
72.11020583,59.74807033,61.54030875
72.11127787,59.71976844,61.52294168
72.16756003,59.75782590,61.59573328
72.25096484,59.90705403,61.64097341
72.39086621,60.08126072,61.75064322
72.55253002,60.29095197,61.91959691
72.68321184,60.49453259,62.03312607
72.78462693,60.66219983,62.13111063
72.90437393,60.81882504,62.24785592
72.97609348,60.95315180,62.28955832
73.06389365,61.08769297,62.39794168
73.12403516,61.26533019,62.45808319
73.25589623,61.37939537,62.59080189
73.37542882,61.60849057,62.67452830
73.41713122,61.68857204,62.70636792
73.48402659,61.80220840,62.78762864
73.61513722,61.99699828,62.86963979
73.72780875,62.19093053,62.99260292
73.85956261,62.36599485,63.09176672
73.95679674,62.55049314,63.20636792
74.10784734,62.77144082,63.34541166
74.23145369,62.96451544,63.47287736
74.33297599,63.10205832,63.56432247
74.42409949,63.26243568,63.64665523
74.57407804,63.46987564,63.82579331
74.65008576,63.61771012,63.90415952
74.74260292,63.75332333,63.98574185
74.85506003,63.95626072,64.07246998
74.92624357,64.08040309,64.09305317
74.47952401,63.59466123,63.66048456
73.47480703,62.30778302,62.88239708
72.76093482,61.21548027,62.20819039
72.38507719,60.56496569,61.80789022
72.35966981,60.32429245,61.80521012
72.31721698,60.20872642,61.71944683
72.36042024,60.22534305,61.77358491
72.37317753,60.16348628,61.73767153
72.36610206,60.17463551,61.73681389
72.40180103,60.20947684,61.77744425
72.37500000,60.16659520,61.78987993
72.26876072,59.99453259,61.63196827
72.12553602,59.76125643,61.50203688
72.07579331,59.72545026,61.48016724
72.14247427,59.76361492,61.53505575
72.25857633,59.90072899,61.62907376
72.41970412,60.11953259,61.79513293
72.48466981,60.22523585,61.79727702
72.60055746,60.45668954,61.96333619
72.73509863,60.62231990,62.07858062
72.83179674,60.74388937,62.13990137
72.93878645,60.88904374,62.24346055
72.98992281,61.02101201,62.27701544
73.08404803,61.20990566,62.38722127
73.20829760,61.39097341,62.50010720
73.27819468,61.50804031,62.54877787
73.37510720,61.65147942,62.63754288
73.44146655,61.77444254,62.72448542
73.52905232,61.92141938,62.83544168
73.67720840,62.13196827,63.01211407
73.78505575,62.30864065,63.08758576
73.92624357,62.50192967,63.13164666
73.89225986,62.52497856,63.13389794
73.27926672,61.81421527,62.55971269
72.45776158,60.63657804,61.88722127
71.86331475,59.72673671,61.33008148
71.62424957,59.24324614,61.18299743
71.59133791,59.13293310,61.17409949
71.61792453,59.11042024,61.15437393
71.66573756,59.08726415,61.17903087
71.67913808,59.11524443,61.15619640
71.80735420,59.21987564,61.20551029
71.77722985,59.22234134,61.27722985
71.68074614,59.12135506,61.15759005
71.56057033,58.93535592,61.05413808
71.45218696,58.79288165,60.96783877
71.49689108,58.85752573,61.03441252
71.68396226,59.04716981,61.14150943
71.83662093,59.23927959,61.28194683
71.97105489,59.44832762,61.38593482
72.08844340,59.62489280,61.47930961
72.22652230,59.83372642,61.55177959
72.29931389,59.99399657,61.65759005
72.39901372,60.13700686,61.80295883
72.52551458,60.32847341,61.89601201
72.62864494,60.47191252,61.96848199
72.72813036,60.60291595,62.03237564
72.87457118,60.82418525,62.10334477
72.95786878,60.99603345,62.22094768
72.73241852,60.75578902,62.02422813
71.92109777,59.77401372,61.38443396
71.18653516,58.70540309,60.80574614
70.83201115,58.10173671,60.46730274
70.71258576,57.87575043,60.35688250
70.73992281,57.81968268,60.40608919
70.74635506,57.78709262,60.40866209
70.73863636,57.77294168,60.43353345
70.87714408,57.94018010,60.46033448
71.00268010,58.12081904,60.60452401
70.99292453,58.15222985,60.60827616
70.95304460,58.09262436,60.52830189
70.89311750,58.00503859,60.48617067
70.89912093,58.02712264,60.50525300
71.02251286,58.17045455,60.61213551
71.21462264,58.40994854,60.76179245
71.41080617,58.67066895,60.94768439
71.55531732,58.91595197,61.03044597
71.77090480,59.20679674,61.19286021
71.86942539,59.39193825,61.24313894
71.97930961,59.59659091,61.35538165
72.10666810,59.77926672,61.45894082
72.20175815,59.96119211,61.55102916
72.39665523,60.20261578,61.69596913
72.47019726,60.33940823,61.81582333
72.58018868,60.50836192,61.87199828
72.68171098,60.66605918,61.97652230
72.81743139,60.85216552,62.12639365
72.96397942,61.11342196,62.24378216
73.10870497,61.30253002,62.36813894
73.19371784,61.49367496,62.47973842
73.34208834,61.69693396,62.62982419
73.47073328,61.91927530,62.75246569
73.61181389,62.09937822,62.84551887
73.70979846,62.26061321,62.95336621
73.79534734,62.44864923,63.03376930
73.91230703,62.65566038,63.16102058
74.04095197,62.83490566,63.23734991
74.19511149,63.04416810,63.40630360
74.28259005,63.19618353,63.47662950
74.36749571,63.38743568,63.59005146
73.96740995,62.93739280,63.21676672
72.82868782,61.47084048,62.21054889
71.95411664,60.22898799,61.45583190
71.52755146,59.46515866,61.02326329
71.40705403,59.16155660,60.92828045
71.42581475,59.04995712,60.97877358
71.43213979,59.03205403,60.96623070
71.36813894,58.92367067,60.91852487
71.38990137,58.92141938,60.89890652
71.41777444,58.94135935,60.91605918
71.41016295,58.93224700,60.90587479
71.33083190,58.78666381,60.82761578
71.24088765,58.67570755,60.73531304
71.19768439,58.60548885,60.71333619
71.23938679,58.64869211,60.73702830
71.40319468,58.83179674,60.84809177
71.55553173,59.02422813,60.96955403
71.72480703,59.23788593,61.15340909
71.86213551,59.47148370,61.33533448
71.95668954,59.65973413,61.38014580
72.08190395,59.82418525,61.49828473
72.15523156,59.99378216,61.56475129
72.25278731,60.17409949,61.67581475
72.36470840,60.34541166,61.73113208
72.46537307,60.48960120,61.86738851
72.53816467,60.63421955,61.93010292
72.65030017,60.78001715,62.03730703
72.73542024,60.92367067,62.10227273
72.90898370,61.18128216,62.25375214
72.96740995,61.37843053,62.31303602
73.08201115,61.50525300,62.43664237
73.27154803,61.74453259,62.58051029
73.31989708,61.86685249,62.60012864
73.40716123,61.99871355,62.71998285
73.52572899,62.14279588,62.83447684
73.65887650,62.35827616,62.92045455
73.79942110,62.56936106,63.07150515
73.86042024,62.69639794,63.13572041
73.95336621,62.84316038,63.22866638
74.04288165,62.98263293,63.27744425
74.19854202,63.22277015,63.43289022
74.13775729,63.19093053,63.40469554
73.15448113,62.01876072,62.52133362
72.09294597,60.58844340,61.63840051
71.44961407,59.51093482,61.03344768
71.23456261,59.00771870,60.81925386
71.23359777,58.89011578,60.71751715
71.28259005,58.86835334,60.77808748
71.19993568,58.73659949,60.68814322
71.14901372,58.65973413,60.66638079
71.17195540,58.70004288,60.69554031
71.21194254,58.70872642,60.79899228
71.15844768,58.65694683,60.76200686
71.01479417,58.42988851,60.56132075
70.92581475,58.32847341,60.55789022
70.94071612,58.33329760,60.55799743
71.04416810,58.45647513,60.63250429
71.15040738,58.59208834,60.69714837
71.30831904,58.82225557,60.83018868
71.46344340,59.04256003,61.04856346
71.58415523,59.25053602,61.04256003
71.75192967,59.42731561,61.17388508
71.78966552,59.53023156,61.29459691
71.82718696,59.63036021,61.31946827
71.99689108,59.88496998,61.38325472
72.08361921,60.00664666,61.51779588
72.18942967,60.14011578,61.58372642
72.27615780,60.25921955,61.66445111
72.35420240,60.43138937,61.75536021
72.50546741,60.64418954,61.88539880
72.63668525,60.82643654,61.95272298
72.77326329,61.02669383,62.09916381
72.87982419,61.19907804,62.23059605
73.00611063,61.39118782,62.32450686
73.15619640,61.60452401,62.48509863
73.26157804,61.77337050,62.51715266
73.37178388,61.95240137,62.65094340
73.44071612,62.09616209,62.73188250
73.58908662,62.29148799,62.89440395
73.74689108,62.49839194,63.03248285
73.42517153,62.17645798,62.74807033
72.36781732,60.87253431,61.78741424
71.46301458,59.59744854,61.05885506
70.99721269,58.74142367,60.57675815
70.86117067,58.43835763,60.54749142
70.87221269,58.38507719,60.54352487
70.88486278,58.37714408,60.50000000
70.90298027,58.33629931,60.52905232
70.93149657,58.35752573,60.53355489
71.01222127,58.42324185,60.53837907
71.02058319,58.42066895,60.59691252
70.83018868,58.19661235,60.42667238
70.69296741,58.00364494,60.29180961
70.68707118,57.95529588,60.26254288
70.73391938,58.02873070,60.38743568
70.89987136,58.21226415,60.53023156
70.98059605,58.34852058,60.59080189
71.16144940,58.63143225,60.75964837
71.33865780,58.85473842,60.87253431
71.48960120,59.05992710,61.01490137
71.58436964,59.22459262,61.09509005
71.64601201,59.32246998,61.10227273
71.75889794,59.51425815,61.23509863
71.82622213,59.65019297,61.26618782
71.97995283,59.83458405,61.46065609
72.09401801,60.01082762,61.51833190
72.15405232,60.13968696,61.57750858
72.30885506,60.36760292,61.71901801
72.25739708,60.35087907,61.67956690
71.55692539,59.49860635,61.02433533
70.67527873,58.27047599,60.31378645
70.15222985,57.43524871,59.88593482
70.03044597,57.07461407,59.79352487
69.98552744,57.02304889,59.77733705
70.01833190,57.02326329,59.80478130
70.04834906,57.03998714,59.80842624
70.13068182,57.10130789,59.87339194
70.29931389,57.36042024,60.07868782
70.33008148,57.40405232,60.05649657
70.24399657,57.29266724,60.00085763
70.17999571,57.22545026,59.94200257
70.17367067,57.21590909,59.94446827
70.24163808,57.31174957,59.96226415
70.42806604,57.51125643,60.14183105
70.59584048,57.75493139,60.29524014
70.78891509,58.07364923,60.41177101
70.99292453,58.31732419,60.59048027
71.17302744,58.54631218,60.70990566
71.24142367,58.73799314,60.82268439
71.36256432,58.89343911,60.86492281
71.53527015,59.12446398,61.07750858
71.64879931,59.31496569,61.11663808
71.74099485,59.44511149,61.19210978
71.84541166,59.59369640,61.24528302
71.95711835,59.77251286,61.35484563
72.07268439,59.96976844,61.49228130
72.26361492,60.23059605,61.67635077
72.36760292,60.38711407,61.74388937
72.48349057,60.59240995,61.86042024
72.59562607,60.78130360,61.96397942
72.75128645,61.00686106,62.12971698
72.90265866,61.21548027,62.21848199
73.03634220,61.42356346,62.31228559
73.14901372,61.57654374,62.45197256
73.27079760,61.81560892,62.55553173
73.42356346,62.03998714,62.73188250
73.52862350,62.20336621,62.79234563
73.67474271,62.43739280,62.94854202
73.84273156,62.65705403,63.11588765
73.87210549,62.74603345,63.12918096
72.98692110,61.71998285,62.32332762
71.80006432,60.18685678,61.35195111
71.12403516,59.02090480,60.71129931
70.83619211,58.46612350,60.45411664
70.81839623,58.31153516,60.42967410
70.86138508,58.29727702,60.49410377
70.81753859,58.22255575,60.44296741
70.78891509,58.14054460,60.38968696
70.81850343,58.15769726,60.42699400
70.85409520,58.20272298,60.45593911
70.81861063,58.12714408,60.43096055
70.66252144,57.97963122,60.27058319
70.62328473,57.84905660,60.22319897
70.64536878,57.87971698,60.28623499
70.78055317,58.02476415,60.40040738
70.93449828,58.23359777,60.55992710
71.08790738,58.43696398,60.64236707
71.25235849,58.65201544,60.77958834
71.42109777,58.93096055,60.91295026
71.58662093,59.11170669,61.06046312
71.71612350,59.31367925,61.11921098
71.78430532,59.44768439,61.21740995
71.90072899,59.65994854,61.32032590
72.02851630,59.79974271,61.40737564
72.09809177,59.96065609,61.47030446
72.23413379,60.16102058,61.58340480
72.30585334,60.29877787,61.68814322
72.48584906,60.53280446,61.87199828
72.57450686,60.69243139,61.98381218
72.69275300,60.87478559,62.00771870
72.85441681,61.08597770,62.17667238
73.02240566,61.34337479,62.28655660
73.18674957,61.58619211,62.47405660
73.30285163,61.78055317,62.56571612
73.34541166,61.92817324,62.61513722
73.51393654,62.11771012,62.76672384
73.64515437,62.31925386,62.89837050
73.71891081,62.52337050,63.00428816
73.85162950,62.66895369,63.13850772
73.99013722,62.86706690,63.28216123
74.07375643,63.01822470,63.37564322
74.22084048,63.21033448,63.44639794
73.68567753,62.61020583,62.97662950
72.45894082,61.07793739,61.91906089
71.62403516,59.80392367,61.18599914
71.23563465,59.07032590,60.73477702
71.12853774,58.71687393,60.63990137
71.12692967,58.69339623,60.66959691
71.16134220,58.66991852,60.72737993
71.11835334,58.60120069,60.68803602
71.09819897,58.54931389,60.65716123
71.18910806,58.61878216,60.74356775
71.14719125,58.58286878,60.68021012
71.10774014,58.46001286,60.67442110
70.94897084,58.26543739,60.49614065
70.89676244,58.22009005,60.47566467
70.94457547,58.24817753,60.58265437
71.05949828,58.41520154,60.62639365
71.20615352,58.62617925,60.72094768
71.37553602,58.83865780,60.83715695
71.53880789,59.02058319,61.00150086
71.71012007,59.24056604,61.15415952
71.80810463,59.41852487,61.26650943
71.90115780,59.58104631,61.30681818
71.95733276,59.69232419,61.34412521
72.06614494,59.91691681,61.48038165
72.14204545,60.00546741,61.50739708
72.29105918,60.21258576,61.65362350
72.33769297,60.34991424,61.72662950
72.46430103,60.51104202,61.82472127
72.60184391,60.67903087,61.95347341
72.76447256,60.90641081,62.07450686
72.82900943,61.06014151,62.11545883
72.94854202,61.25879074,62.22362779
73.07975986,61.44639794,62.38915094
73.15480274,61.61492281,62.45090051
73.35688250,61.82665094,62.63797170
73.43353345,62.00192967,62.76136364
73.55553173,62.21247856,62.85870497
73.65576758,62.36695969,62.92056175
73.79845626,62.57118353,63.10977702
73.60012864,62.33254717,62.86878216
72.48038165,60.95701115,61.91670240
71.56968268,59.63357633,61.08769297
71.06646655,58.78173242,60.65544597
70.91434391,58.47695111,60.53462693
70.97684391,58.43696398,60.52401372
70.98241852,58.41638079,60.56668096
71.03441252,58.44629074,60.57815180
71.04952830,58.43953688,60.58147513
71.16756003,58.55971269,60.66348628
71.17731561,58.59969983,60.70325901
71.05113636,58.39290309,60.57729417
70.89000858,58.18524871,60.47019726
70.81550172,58.11760292,60.42656518
70.91852487,58.19018010,60.46419383
71.06367925,58.36813894,60.62028302
71.23767153,58.58158233,60.73681389
71.39097341,58.79491852,60.87939537
71.55842624,59.00503859,60.97309177
71.67334906,59.21215695,61.05478130
71.81475129,59.46054889,61.21869640
71.90587479,59.60934820,61.28945111
71.96740995,59.73499142,61.35913379
72.03376930,59.87575043,61.45851201
72.18900086,60.07236278,61.56507290
72.28602058,60.20883362,61.61449400
72.43246141,60.44103774,61.76479417
72.48102487,60.55735420,61.83522727
72.61224271,60.74603345,61.95701115
72.76125643,60.93642796,62.11503002
72.90898370,61.15040738,62.22716552
73.04481132,61.37864494,62.37564322
73.13732847,61.49517581,62.40984134
73.29127358,61.74603345,62.56185678
73.41155660,61.95079331,62.71129931
73.55349485,62.15533877,62.82322041
73.68331904,62.34155232,62.95325901
73.81421527,62.50632504,63.04063036
73.90973413,62.69961407,63.16059177
74.08040309,62.97662950,63.31475129
74.21387221,63.15147942,63.40448113
73.99603345,62.91970412,63.20551029
72.83104631,61.48906518,62.20583190
71.77605060,60.09423242,61.33372642
71.23048885,59.18289022,60.79909949
71.05070755,58.79298885,60.61695969
71.02283448,58.59637650,60.55113636
71.09551887,58.63089623,60.63325472
71.08029588,58.59165952,60.63647084
71.08072470,58.56207118,60.61674528
71.14751286,58.61706690,60.71269297
71.15340909,58.62810892,60.73574185
71.10034305,58.58254717,60.64644082
70.99549743,58.35205832,60.54116638
70.94843482,58.33930103,60.49624786
70.95969125,58.33319039,60.51522298
71.03698542,58.41348628,60.61074185
71.20090051,58.62907376,60.73284734
71.38271870,58.89343911,60.87821612
71.57054031,59.13357633,61.00814751
71.70154374,59.33083190,61.11685249
71.79792024,59.47823756,61.20293739
71.91102058,59.67131218,61.27272727
72.04652659,59.85420240,61.43460549
72.12231990,60.03055317,61.50804031
72.19811321,60.14794168,61.60698971
72.33758576,60.32900943,61.67935249
72.43900086,60.52111921,61.79020154
72.56260720,60.70990566,61.90801887
72.62596484,60.83479846,61.96472985
72.78859348,61.06132075,62.12928816
72.94050172,61.25782590,62.28183962
73.06700257,61.48938679,62.38175386
73.19554031,61.70240137,62.43524871
73.28730703,61.84777015,62.65008576
73.44768439,62.10849057,62.70904803
73.57364923,62.28548456,62.86460120
73.70261578,62.52272727,62.95904803
73.83158233,62.66477273,63.06528731
73.95711835,62.85420240,63.19253859
74.05735420,62.98424099,63.26575901
74.22159091,63.22094768,63.46129931
74.33222556,63.43364065,63.54942110
73.70454545,62.75814751,63.00128645
72.44296741,61.12907376,61.92538593
71.53162521,59.79320326,61.07107633
71.15158662,59.08855060,60.72791595
71.05413808,58.83372642,60.60731132
71.08329760,58.78334048,60.62617925
71.08544168,58.74410377,60.67677959
71.04824185,58.66402230,60.59155232
71.01983276,58.63068182,60.57129074
71.15212264,58.71687393,60.67635077
71.12607204,58.73477702,60.71076329
71.01940395,58.56142796,60.56957547
70.89408233,58.37800172,60.48992281
70.84112350,58.31389365,60.41702401
70.89686964,58.37692967,60.47126930
71.06496569,58.58319039,60.66037736
71.19897084,58.73198971,60.71119211
71.37307033,58.93138937,60.86449400
71.47587907,59.12339194,60.90619640
71.65244425,59.37950257,61.05102916
71.76050600,59.53537736,61.18353345
71.86953259,59.72630789,61.29084477
71.90951973,59.81710978,61.31861063
71.99614065,59.97277015,61.43267581
72.14547599,60.16884648,61.58072470
72.19532590,60.33726415,61.57289880
72.35613208,60.48649228,61.74463979
72.47062607,60.63743568,61.83640652
72.55971269,60.80628216,61.92849485
72.71708834,61.02562178,62.03977273
72.85280875,61.26232847,62.20915523
72.93932247,61.44554031,62.28773585
73.09069468,61.61320755,62.44746998
73.18546312,61.78323328,62.49957118
73.36620926,61.99378216,62.65909091
73.47191252,62.17195540,62.72620069
73.61588765,62.41584477,62.93106775
73.65887650,62.50128645,62.93310463
73.76683105,62.73338336,62.97673671
73.83780017,62.86417238,63.04406089
73.96623070,63.04105918,63.23659949
73.48563465,62.46740995,62.81732419
72.22695111,60.91327187,61.73209691
71.41530875,59.68953688,60.93439108
70.95068611,58.94189537,60.60398799
70.79491852,58.63218268,60.42828045
70.83276158,58.58297599,60.41852487
70.87124786,58.58544168,60.48638508
70.85731132,58.53226844,60.43942967
70.88636364,58.53623499,60.44575472
70.96537307,58.57986707,60.56893225
70.95947684,58.56475129,60.49356775
70.80928388,58.37553602,60.36631647
70.68321184,58.14354631,60.22716552
70.60120069,58.09584048,60.21976844
70.63496998,58.10581046,60.22802316
70.77583619,58.29448971,60.34787736
70.89183105,58.42270583,60.49689108
71.06786021,58.64869211,60.58694254
71.15158662,58.78923671,60.62928816
71.28998714,58.98638508,60.81957547
71.39472556,59.13421955,60.90437393
71.50728988,59.30403087,60.98627787
71.52980274,59.39193825,61.01093482
71.60366638,59.50911235,61.10924099
71.72920240,59.68546312,61.23799314
71.77712264,59.79641938,61.19564751
71.87607204,59.91230703,61.28409091
71.95433105,60.07975986,61.40759005
72.03419811,60.21129931,61.45207976
72.16434391,60.37339194,61.65705403
72.26265009,60.51779588,61.71612350
72.37457118,60.69168096,61.77808748
72.47191252,60.84391081,61.87006861
72.57397084,61.01157804,61.98756432
72.68750000,61.16820326,62.07793739
72.81614494,61.36610206,62.22394940
72.94554031,61.59069468,62.30210120
72.99871355,61.67495712,62.35227273
72.60012864,61.27808748,62.03602058
71.52326329,60.00611063,61.14247427
70.77240566,58.88732847,60.45701115
70.38561321,58.18171098,60.04427530
70.28484134,57.96365780,59.96258576
70.29759863,57.92259863,60.01993997
70.36063465,57.94168096,60.03301887
70.39826329,57.95829760,60.04341767
70.46569468,57.99721269,60.02444254
70.53216123,58.12328473,60.18096055
70.48059605,58.07472127,60.12017581
70.31207118,57.83372642,59.97480703
70.19200257,57.65876930,59.87274871
70.18471269,57.63582762,59.90147942
70.25096484,57.68835763,59.87789451
70.37199828,57.85977702,60.08469125
70.51533019,58.02176244,60.13561321
70.63336192,58.19661235,60.23627787
70.82343482,58.42420669,60.40662521
70.92956690,58.58651372,60.48359777
70.99356775,58.70840480,60.56603774
71.07322041,58.85430961,60.62231990
71.14086621,58.98713551,60.72984563
71.29599057,59.18256861,60.83479846
71.35184391,59.30981990,60.92667238
71.42174099,59.45540309,60.97298456
71.50032161,59.60666810,61.02819468
71.62435678,59.75364494,61.15951973
71.69489708,59.90437393,61.23627787
71.88893654,60.12864494,61.36063465
72.00643225,60.30767581,61.46419383
72.12735849,60.48477702,61.60677530
72.24581904,60.66563036,61.67099057
72.38336192,60.90115780,61.82461407
72.47148370,61.02744425,61.86985420
72.60237993,61.23038165,62.02197684
72.67774443,61.39879931,62.10506003
72.75954117,61.56099914,62.21644511
72.90105060,61.76940395,62.31507290
72.97362779,61.88786449,62.37371355
72.56035592,61.49367496,62.03098199
71.50182247,60.16412950,61.12617925
70.66080617,58.98713551,60.42881647
70.26650943,58.27465695,59.98048885
70.13936535,57.96526587,59.87821612
70.14547599,57.92120497,59.89547599
70.19671955,57.93299743,59.86181389
70.15265866,57.84969983,59.86985420
70.20079331,57.84937822,59.93942967
70.23895798,57.89654803,59.98445540
70.24592624,57.90180103,59.95475986
70.12928816,57.73499142,59.87692967
70.03580617,57.59455403,59.73477702
70.04448971,57.57043310,59.80070755
70.04577616,57.59916381,59.82986707
70.12424957,57.70936964,59.88368353
70.26286449,57.88207547,59.96162093
70.38979417,58.08940823,60.02465695
70.60784734,58.38078902,60.29352487
70.70861921,58.54245283,60.37264151
70.75525300,58.62060463,60.35130789
70.84444683,58.78162521,60.46966123
70.96022727,58.94157376,60.56614494
71.04609777,59.07868782,60.68224700
71.15994854,59.21783877,60.75964837
71.22995283,59.38818611,60.82515009
71.37875214,59.58587050,60.97995283
71.46526587,59.69575472,61.00407376
71.53891509,59.85002144,61.09637650
71.68149657,60.08372642,61.30199400
71.77272727,60.23820755,61.29459691
71.92345626,60.45626072,61.47319897
72.02240566,60.60302316,61.53441252
72.14236707,60.77315609,61.65951973
72.30831904,60.99528302,61.80188679
72.44093053,61.19907804,61.96280017
72.55360206,61.36749571,62.10077187
72.66219983,61.52240566,62.17399228
72.75192967,61.67667238,62.22770154
72.85291595,61.86942539,62.32568611
72.99088765,62.08587050,62.45636792
72.63389794,61.70379503,62.10280875
71.53923671,60.40351630,61.22898799
70.71258576,59.19822041,60.44350343
70.31936106,58.49581904,60.13689966
70.25375214,58.23595626,60.06721698
70.27637221,58.20411664,60.03859348
70.32536449,58.19543310,60.09744854
70.34841338,58.19789880,60.06882504
70.37575043,58.21237136,60.15469554
70.44929245,58.28612779,60.16906089
70.43524871,58.22963122,60.13765009
70.29867067,58.05081475,60.02680103
70.16648799,57.87746569,59.93063894
70.11760292,57.80821184,59.83994425
70.20851201,57.87875214,59.98188250
70.30939108,58.01114923,60.05060034
70.43964408,58.21601630,60.16927530
70.60495283,58.38132504,60.28655660
70.72855918,58.54288165,60.39279588
70.87521441,58.76265009,60.49764151
70.91069897,58.90233705,60.48810034
70.99624786,58.99496141,60.61117067
71.12189108,59.21194254,60.72716552
71.24571184,59.38957976,60.87735849
71.27422813,59.46247856,60.84927101
71.41627358,59.65941252,60.98724271
71.52229846,59.82911664,61.09969983
71.62853774,59.94286021,61.20015009
71.75493139,60.15587479,61.34519726
71.87446398,60.32600772,61.42656518
72.00375214,60.49946398,61.56700257
72.09391081,60.67024014,61.60420240
72.23874357,60.87017581,61.72416381
72.35463122,61.05638937,61.86599485
72.43685678,61.20465266,61.97802316
72.56882504,61.38700686,62.07461407
72.68331904,61.56217839,62.15394511
72.83533448,61.77272727,62.29931389
72.92484991,61.94543310,62.37510720
73.03130360,62.11535163,62.48927959
72.92292024,62.07000429,62.44671955
72.00225129,60.94500429,61.58458405
70.99356775,59.55767581,60.70926244
70.40898370,58.55156518,60.13111063
70.19221698,58.10688250,59.92549314
70.15415952,57.88722127,59.88872213
70.21612350,57.90759005,59.92774443
70.19789880,57.86084906,59.91144940
70.18406947,57.80671098,59.93063894
70.24935678,57.84798456,59.96955403
70.26447256,57.86867496,59.99388937
70.13657804,57.73048885,59.86170669
70.04105918,57.54942110,59.77326329
69.99131647,57.44093053,59.72523585
70.02594340,57.45711835,59.82311321
70.08254717,57.54073756,59.84005146
70.21569468,57.70861921,59.97577187
70.39708405,57.93246141,60.05981990
70.53527015,58.10924099,60.23209691
70.64740566,58.29084477,60.27069039
70.73745712,58.47502144,60.37146226
70.81968268,58.57761578,60.36127787
70.90147942,58.73509863,60.51575901
71.00600343,58.86513722,60.61149228
71.09541166,59.00107204,60.67324185
71.18814322,59.13797170,60.74474700
71.28784305,59.28719983,60.84423242
71.40587479,59.45111492,60.97620069
71.52176244,59.63732847,61.09444683
71.60420240,59.78945111,61.07868782
71.73220412,59.96012007,61.23970840
71.83662093,60.13293310,61.34498285
71.90083619,60.25761149,61.41391509
72.07461407,60.47577187,61.58747856
72.19961407,60.62778731,61.68138937
72.34294597,60.81957547,61.77733705
72.41059177,60.97877358,61.85977702
72.51704545,61.13990137,61.94243139
72.65780446,61.35613208,62.09755575
72.73810034,61.49453259,62.20379503
72.75814751,61.56818182,62.19275300
72.05006432,60.73617067,61.52111921
70.97523585,59.33115352,60.74731990
70.34927101,58.24249571,60.07804460
70.05038593,57.65158662,59.82718696
70.02637221,57.50171527,59.78773585
70.03902230,57.45433105,59.78602058
70.07354202,57.43653516,59.81325043
70.07643654,57.41520154,59.82493568
70.16948971,57.52004717,59.87918096
70.21280017,57.52069039,59.93042453
70.13979417,57.43717839,59.80681818
69.98509863,57.21430103,59.72223413
69.88100343,57.06003431,59.60656089
69.88036021,57.07332762,59.66466552
69.99614065,57.17624357,59.73370497
70.12146226,57.36202830,59.82750858
70.27594340,57.57847341,59.94446827
70.45400943,57.78248285,60.09037307
70.64290309,58.02111921,60.23145369
70.73466981,58.18814322,60.29406089
70.85130789,58.32643654,60.37575043
70.88400515,58.46483705,60.49957118
70.98424099,58.63111063,60.52069039
71.10237993,58.75825472,60.65855489
71.18814322,58.89633362,60.68192539
71.27744425,59.07675815,60.83597770
71.40330189,59.21376501,60.92538593
71.50728988,59.39215266,61.00128645
71.61963979,59.58469125,61.03087479
71.73649228,59.71805317,61.16423671
71.83051029,59.90233705,61.26618782
71.96151372,60.08136792,61.39847770
72.07536449,60.27540738,61.48081046
72.25150086,60.50407376,61.63572041
72.31646655,60.63786449,61.72298456
72.45197256,60.80660377,61.81432247
72.56689537,60.99228130,61.95497427
72.72073328,61.19243139,62.08844340
72.69961407,61.22384220,62.02551458
71.82493568,60.16605918,61.25611063
70.86095626,58.88239708,60.39311750
70.34466123,57.93235420,59.95100772
70.16144940,57.51222127,59.82847341
70.15094340,57.40759005,59.77465695
70.17806604,57.40448113,59.85388079
70.17077616,57.40598199,59.82107633
70.21247856,57.42731561,59.90115780
70.31593053,57.52669383,59.98059605
70.37167667,57.56850343,59.98188250
70.26693825,57.45840480,59.92281304
70.17109777,57.28666381,59.83276158
70.11695969,57.21044168,59.76425815
70.17774443,57.27358491,59.80874786
70.26286449,57.39815609,59.88807890
70.43964408,57.64183105,60.04942110
70.63572041,57.89708405,60.23263293
70.76972556,58.12843053,60.32890223
70.89762007,58.30713979,60.39418954
71.00160806,58.51082762,60.49281732
71.13957976,58.65694683,60.62971698
71.25739708,58.85109348,60.70122213
71.35656089,59.00578902,60.79459691
71.43246141,59.14622642,60.81732419
71.52283448,59.33265437,60.89847770
71.64129503,59.50128645,61.01393654
71.75943396,59.66209262,61.12349914
71.91080617,59.86363636,61.26522298
71.99260292,60.01533019,61.37553602
72.12371355,60.22941681,61.46869640
72.24742710,60.40587479,61.58297599
72.35184391,60.58361921,61.68975129
72.51072041,60.76479417,61.82118353
72.58447684,60.93932247,61.90694683
72.69093053,61.09165952,62.01533019
72.77948113,61.27283448,62.11974700
72.91380789,61.45111492,62.25621784
73.01929674,61.58876501,62.28752144
73.14601201,61.79309605,62.46290738
73.19018010,61.90694683,62.48027444
72.57461407,61.20068611,61.91852487
71.51179245,59.82718696,61.04159520
70.76136364,58.66573756,60.25879074
70.50257290,58.04481132,60.06925386
70.43932247,57.83018868,60.00836192
70.45497427,57.79481132,60.00921955
70.47534305,57.79352487,60.06710978
70.44071612,57.74003002,59.99517581
70.48563465,57.76072041,60.04416810
70.50278731,57.77186964,60.06174957
70.48692110,57.75664666,60.03880789
70.38475557,57.59509005,59.94350343
70.30949828,57.47394940,59.86417238
70.32171955,57.49238851,59.95722556
70.39815609,57.57590051,59.96548027
70.51715266,57.78044597,60.03087479
70.73263293,58.03323328,60.21826758
70.91863208,58.26254288,60.42785163
71.02948113,58.44671955,60.53076758
71.15951973,58.66723842,60.61899657
71.28945111,58.82954545,60.70240137
71.38732847,58.98166810,60.79963551
71.48584906,59.15673242,60.86706690
71.60355918,59.35420240,60.97555746
71.66605918,59.45636792,61.02433533
71.73466981,59.61760292,61.10323756
71.84326758,59.77058319,61.18910806
71.96172813,59.93621355,61.29277444
72.10763293,60.12028302,61.45111492
72.23274014,60.33351201,61.53955832
72.33972985,60.48638508,61.63496998
72.43771441,60.69071612,61.71151372
72.60398799,60.89601201,61.91423671
72.74045883,61.11267153,62.03805746
72.81014151,61.24024443,62.09980703
72.92324185,61.41530875,62.15523156
73.02337050,61.61063465,62.22534305
73.16627358,61.82386364,62.37189108
73.28730703,62.00557461,62.53602058
73.39997856,62.15062178,62.65919811
73.53173242,62.32697256,62.75021441
72.99442539,61.75964837,62.28001715
71.85634648,60.31153516,61.33876501
71.05177959,59.05778302,60.52647942
70.68256861,58.35945540,60.17227702
70.61888937,58.14654803,60.16884648
70.64526158,58.09894940,60.16262864
70.68835763,58.08436964,60.19414666
70.66734563,58.01297170,60.16906089
70.65383791,57.98338336,60.15040738
70.69800600,58.02326329,60.19822041
70.72362779,58.04180961,60.21526587
70.60152230,57.91948971,60.12746569
70.53730703,57.77058319,60.06625214
70.49271012,57.74828473,60.07182676
70.57858062,57.84809177,60.09316038
70.77894511,58.05617496,60.26758148
70.90244425,58.24699828,60.38400515
71.02862350,58.46194254,60.51232847
71.15373070,58.66831046,60.60205832
71.31593053,58.89547599,60.80027873
71.45572470,59.09144511,60.88282590
71.53216123,59.24571184,60.92688679
71.60902659,59.36738851,60.98466981
71.71955403,59.50943396,61.08983705
71.87993139,59.70733276,61.20904803
71.91595197,59.82954545,61.25085763
72.04116638,60.02251286,61.38014580
72.18460549,60.23927959,61.49356775
72.30617496,60.39365352,61.62885935
72.40823328,60.58512007,61.74249571
72.47684391,60.71848199,61.80145798
72.61535163,60.92066895,61.89000858
72.77497856,61.12167667,62.06678816
72.90490995,61.34251715,62.18985849
73.04995712,61.52530017,62.28237564
73.10302316,61.69157376,62.35559605
73.18385506,61.86760292,62.42570755
73.26833190,61.99667667,62.50075043
73.44189537,62.20947684,62.65801887
73.57815180,62.41798885,62.73960120
73.63882933,62.54899228,62.81507290
73.57900943,62.51340051,62.77798027
72.55531732,61.30317324,61.87628645
71.54084477,59.88475557,61.00611063
70.99163808,58.89708405,60.46976844
70.82686535,58.45722556,60.30585334
70.85162950,58.38100343,60.36427959
70.86631647,58.38925815,60.33672813
70.89386792,58.35891938,60.35999142
70.90083619,58.34380360,60.42613636
71.00364494,58.43953688,60.44210978
70.98552744,58.43942967,60.44071612
70.92109777,58.34712693,60.37757290
70.72877358,58.09262436,60.16573756
70.65973413,57.97041166,60.09991424
70.73295455,58.02862350,60.22695111
70.86653087,58.16906089,60.30778302
70.98734991,58.31882504,60.44982847
71.15008576,58.55510292,60.59005146
71.31571612,58.79406089,60.73209691
71.43535592,59.01211407,60.82900943
71.48424099,59.16048456,60.88882933
71.60377358,59.32439966,60.98670669
71.71644511,59.49260292,61.06057033
71.77765866,59.59777015,61.15158662
71.88164666,59.73820755,61.19682676
71.93385506,59.85216552,61.28698542
72.05488851,60.07525729,61.39301029
72.16948971,60.23424099,61.52026158
72.29706261,60.36931818,61.61781732
72.41262864,60.55306604,61.72866638
72.50836192,60.72534305,61.75836192
72.62832333,60.90898370,61.90812607
72.77154803,61.09165952,62.03076758
72.86899657,61.26329331,62.13614923
72.98617067,61.45958405,62.20079331
73.08651372,61.62896655,62.30799743
73.18299743,61.78484134,62.40276587
73.29599057,61.96987564,62.51125643
73.39343911,62.11406518,62.58490566
73.48692110,62.28966552,62.66402230
73.04824185,61.79395369,62.29202401
71.96837479,60.39526158,61.36374357
71.11642367,59.10784734,60.60162950
70.81153516,58.41059177,60.25578902
70.70400943,58.15298027,60.18106775
70.70754717,58.12071184,60.21097770
70.76457976,58.14150943,60.27379931
70.74174528,58.13882933,60.28248285
70.82707976,58.19521870,60.32450686
70.91359348,58.28795026,60.40373070
70.88143225,58.27294168,60.38464837
70.80821184,58.13153945,60.28462693
70.67216981,57.98734991,60.15437393
70.64654803,57.92227702,60.17806604
70.74313894,58.03666381,60.23327616
70.91027015,58.23424099,60.33694254
71.04674099,58.43503431,60.46333619
71.19768439,58.71312178,60.55960549
71.37371355,58.94210978,60.77229846
71.48767153,59.12039022,60.90512436
71.60152230,59.30177959,60.95486707
71.72416381,59.47802316,61.06378645
71.81496569,59.62885935,61.16659520
71.93932247,59.76951115,61.23756432
72.03162521,59.94929245,61.36288593
72.15587479,60.10956261,61.43825043
72.23520583,60.26951115,61.50686106
72.34755575,60.46805317,61.64536878
72.48863636,60.63550600,61.82139794
72.58329760,60.83844340,61.82107633
72.72384220,61.05124357,61.97641509
72.85763293,61.26350772,62.10913379
72.97341338,61.44446827,62.20304460
73.10527444,61.63572041,62.32890223
73.22759434,61.82750858,62.43728559
73.36213551,62.01543739,62.53108919
73.44618353,62.18481990,62.66209262
73.59412521,62.38679245,62.77701544
73.71816038,62.57407804,62.92484991
73.83897942,62.77701544,63.02422813
73.80017153,62.79738422,62.99120926
72.99099485,61.81325043,62.30274443
71.80746141,60.28280446,61.31689537
71.14022298,59.14365352,60.55445969
70.82804460,58.51415094,60.28816467
70.77304889,58.28634220,60.26511578
70.81571612,58.24496141,60.27433533
70.72759434,58.14118782,60.22051887
70.65255146,58.03870069,60.20551029
70.72416381,58.07193396,60.24303173
70.75975557,58.10816895,60.24281732
70.76039880,58.10731132,60.26640223
70.62960978,57.91991852,60.16262864
70.52990995,57.81335763,60.04491852
70.55435249,57.79448971,60.05713979
70.63325472,57.87274871,60.13153945
70.81743139,58.07300600,60.30027873
70.97448542,58.27358491,60.41123499
71.14858491,58.54631218,60.54695540
71.26039880,58.74753431,60.64397513
71.40555317,58.95422384,60.71387221
71.52315609,59.12242710,60.92259863
71.61267153,59.28955832,60.94671955
71.73542024,59.46590909,61.05081475
71.80917667,59.59519726,61.12500000
71.88239708,59.76833190,61.21087050
72.01018439,59.92334906,61.28334048
72.12403516,60.07686535,61.41520154
72.22448542,60.25000000,61.48070326
72.37832333,60.48531304,61.66541595
72.45636792,60.63368353,61.74710549
72.57322041,60.83908662,61.82965266
72.71355060,61.04781304,61.97941681
72.81507290,61.23831475,62.05070755
72.97620069,61.47105489,62.24549743
73.07965266,61.61031304,62.31442967
73.21955403,61.80188679,62.42324185
73.28891509,61.93171098,62.47266295
73.41659520,62.12221269,62.59969983
73.46612350,62.31132075,62.68181818
73.59048027,62.47084048,62.81367925
73.72394940,62.62875214,62.89762007
73.22641509,62.10870497,62.50536021
72.05713979,60.65469554,61.52347770
71.26650943,59.43889365,60.79438250
70.93074614,58.75300172,60.40094340
70.89086621,58.53773585,60.39601201
70.88614923,58.48820755,60.38271870
70.90469554,58.47802316,60.41069897
70.90394511,58.43353345,60.38614923
70.88829331,58.40973413,60.38036021
70.94854202,58.48198971,60.39236707
70.91155660,58.41927530,60.36460120
70.80971269,58.27219125,60.28827187
70.68739280,58.09755575,60.15094340
70.64408233,58.02894511,60.09584048
70.78419811,58.20057890,60.28441252
70.85988422,58.28119640,60.34423242
70.99281732,58.46816038,60.43321184
71.13089623,58.65876930,60.51275729
71.28719983,58.88368353,60.72180532
71.41991852,59.03762864,60.77540738
71.46826758,59.16788165,60.81603774
71.55328045,59.29127358,60.89869211
71.63357633,59.45647513,60.99399657
71.71751715,59.56335763,61.05949828
71.80585334,59.70400943,61.16863208
71.89794168,59.84005146,61.22662950
71.99388937,60.01511578,61.30756861
72.08855060,60.18632075,61.39901372
72.15544597,60.37156947,61.45261578
72.27326329,60.52347770,61.61867496
72.41209262,60.69253859,61.69125214
72.53987993,60.88143225,61.77980274
72.68042453,61.08158233,61.94757719
72.79556175,61.25653945,62.02197684
72.88218268,61.39290309,62.16777444
72.97159091,61.53505575,62.24624786
73.06893225,61.73831475,62.36674528
73.16991852,61.86610206,62.42377787
73.32397084,62.07675815,62.57311321
73.38036021,62.19682676,62.59691252
72.90040738,61.69736278,62.20422384
71.91348628,60.41691681,61.37639365
71.09616209,59.22695111,60.65126501
70.78473413,58.57697256,60.27379931
70.72705832,58.34777015,60.19039451
70.72159091,58.32236278,60.19521870
70.76361492,58.31099914,60.26468696
70.75728988,58.25771870,60.21762436
70.81957547,58.32643654,60.31635935
70.84616209,58.38218268,60.36588765
70.79695540,58.30381647,60.31732419
70.65212264,58.08158233,60.16198542
70.52808748,57.94596913,60.07311321
70.53098199,57.92527873,60.11052744
70.58093911,57.98509863,60.11738851
70.71644511,58.12446398,60.19007290
70.84251715,58.32193396,60.33072470
71.00000000,58.45904803,60.45904803
71.07772298,58.65255146,60.53655660
71.15887650,58.84969983,60.63829331
71.22523585,58.96665952,60.66863208
71.28473413,59.07332762,60.69489708
71.47030446,59.27197684,60.91391509
71.56303602,59.44146655,60.95304460
71.64440395,59.56121355,61.05285163
71.72212693,59.68567753,61.16166381
71.83072470,59.85066467,61.22352058
71.96430103,60.05821184,61.34337479
72.05435249,60.18621355,61.40898370
72.22577187,60.40759005,61.54652659
72.30113636,60.54963551,61.66584477
71.88196827,60.13003859,61.28141081
70.95947684,58.96376501,60.52401372
70.21204974,57.82804460,59.81303602
69.92710120,57.26886792,59.66230703
69.83458405,57.04406089,59.47609348
69.86985420,57.03280446,59.56153516
69.88014580,57.00300172,59.57461407
69.86031304,56.93578473,59.59852058
69.92581475,57.02508576,59.61642367
70.04792024,57.14912093,59.71837479
70.04566895,57.16337907,59.74978559
69.95551029,57.07429245,59.66670240
69.86149228,56.97512864,59.54373928
69.87264151,56.96762436,59.61813894
70.00214408,57.11813894,59.70347341
70.16713122,57.33458405,59.88840051
70.36224271,57.56207118,59.91498714
70.51522298,57.80317324,60.09026587
70.67292024,58.04363208,60.19629074
70.78398370,58.27583619,60.29470412
70.93149657,58.46537307,60.42699400
71.07611492,58.63271870,60.58040309
71.15962693,58.79963551,60.59787736
71.25085763,58.96612350,60.70626072
71.39569039,59.16348628,60.81871784
71.51640223,59.34809177,60.97823756
71.61749571,59.52058319,61.05424528
71.74099485,59.70304460,61.13507719
71.90351630,59.92452830,61.28173242
72.04674099,60.14322470,61.47234134
72.14011578,60.33051029,61.45400943
72.33758576,60.56164237,61.69093053
72.45175815,60.72126930,61.77015437
72.57461407,60.92088336,61.85570326
72.72555746,61.10741852,62.05724700
72.87167667,61.36074185,62.18792882
72.97416381,61.52262007,62.26468696
73.07911664,61.71333619,62.40887650
73.14268868,61.83265437,62.44650515
73.23531304,62.00653945,62.45615352
73.41423671,62.25257290,62.71740995
73.14075901,61.92570755,62.47609348
71.95047170,60.51200686,61.40994854
71.00943396,59.13121784,60.57611492
70.51415094,58.23649228,60.09562607
70.38100343,57.87778731,59.99699828
70.38464837,57.79867067,59.94125214
70.38411235,57.77433533,59.98531304
70.35495283,57.65340909,59.97309177
70.34616209,57.61202830,59.98659949
70.38614923,57.64686964,59.99228130
70.40480274,57.65823328,59.97963122
70.32043310,57.52605060,59.84809177
70.20197256,57.34240995,59.81732419
70.15962693,57.30692539,59.82965266
70.21247856,57.32911664,59.86427959
70.33801458,57.51275729,60.03741424
70.56239280,57.74506861,60.11470840
70.66530875,57.89258148,60.19939966
70.84819897,58.16766724,60.34476844
70.92324185,58.32654374,60.44768439
71.03870069,58.47051887,60.50589623
71.18278302,58.68085334,60.68085334
71.29341767,58.85473842,60.78891509
71.36953259,58.99903516,60.79620497
71.48745712,59.14890652,60.95572470
71.58029588,59.30821184,60.96108491
71.67999571,59.49453259,61.10195111
71.82836621,59.66884648,61.18085334
71.96129931,59.88003859,61.36181389
72.07890223,60.06818182,61.48949400
72.19275300,60.22448542,61.55939108
72.33297599,60.45990566,61.67066895
72.48606346,60.65480274,61.81132075
72.58962264,60.84048027,61.94103774
72.72566467,61.01147084,62.01554460
72.83104631,61.19854202,62.11835334
72.96215695,61.40898370,62.25525300
73.08951544,61.59058748,62.35623928
73.18299743,61.76254288,62.46580189
73.30778302,61.94350343,62.54234563
73.39558319,62.14772727,62.61042024
73.49335334,62.26050600,62.74185249
72.81571612,61.46129931,62.16713122
71.64193825,59.93439108,61.11535163
70.85227273,58.68782161,60.41616638
70.42988851,57.94725557,60.03666381
70.31946827,57.63700686,59.93224700
70.37006861,57.63143225,60.00986278
70.40287307,57.64922813,60.02701544
70.36181389,57.56464408,59.94950686
70.36288593,57.53441252,59.96751715
70.41080617,57.56668096,60.00514580
70.37703688,57.56400086,60.05563894
70.26500858,57.41616638,59.87778731
70.19168096,57.25300172,59.80681818
70.17838765,57.22319897,59.78687822
70.24957118,57.27808748,59.88936535
70.41605918,57.48381218,60.01382933
70.55156518,57.67870926,60.18535592
70.72287736,57.96001286,60.30521012
70.89247427,58.15555317,60.35816895
71.03376930,58.33115352,60.50739708
71.14751286,58.51522298,60.60720412
71.22973842,58.71237136,60.71494425
71.35688250,58.86331475,60.77755146
71.44039451,59.02079760,60.90158662
71.54877787,59.16434391,60.95936964
71.65201544,59.32590051,61.03687822
71.72223413,59.47244854,61.13882933
71.83554889,59.61706690,61.13036021
71.99238851,59.85795455,61.30671098
72.08812178,60.02637221,61.37885935
72.23381218,60.23960120,61.54963551
72.41648799,60.46837479,61.73552744
72.51275729,60.63840051,61.77004717
72.64590480,60.82600772,61.94050172
72.75418096,61.00718268,62.03205403
72.90759005,61.25385935,62.15759005
73.00353774,61.40962693,62.23188250
73.12821612,61.53666381,62.30981990
73.23252573,61.70508148,62.42935249
73.30092196,61.86803173,62.55285163
73.43353345,62.07161235,62.68224700
73.06110635,61.67024014,62.29738422
71.90383791,60.19607633,61.30135077
70.98724271,58.88840051,60.50117925
70.54052316,58.11363636,60.15480274
70.43396226,57.77615780,59.99914237
70.50578902,57.78366209,60.07525729
70.54073756,57.77272727,60.07611492
70.57193396,57.77969554,60.07900943
70.61803173,57.82986707,60.10731132
70.70390223,57.93867925,60.20647513
70.66638079,57.89301029,60.16745283
70.47620069,57.63743568,59.99099485
70.36342196,57.43460549,59.94103774
70.31485849,57.37660806,59.92549314
70.37564322,57.44554031,59.97512864
70.48048885,57.56518010,60.03087479
70.68342624,57.84637650,60.19243139
70.87092624,58.09048027,60.38036021
70.99388937,58.25911235,60.45036449
71.08254717,58.46719554,60.49078045
71.15051458,58.58769297,60.58447684
71.29502573,58.75707547,60.70068611
71.41252144,58.92560034,60.77208405
71.50921955,59.10784734,60.89301029
71.59509005,59.21558748,60.97330617
71.67474271,59.37521441,61.01693825
71.79105918,59.55692539,61.13282590
71.90523156,59.72277015,61.22941681
72.05177959,59.91262864,61.34380360
71.68632075,59.52701544,61.00278731
70.73006003,58.30317324,60.25536021
69.95390223,57.14472556,59.56925386
69.58512007,56.56518010,59.27186964
69.59444683,56.43299743,59.25996998
69.59165952,56.40876930,59.25546741
69.61492281,56.43653516,59.32118353
69.67913808,56.49153087,59.37553602
69.88679245,56.69210978,59.48777873
70.01608062,56.89129503,59.66530875
69.94779160,56.86846055,59.60838336
69.84841338,56.72877358,59.45668954
69.78784305,56.68728559,59.46794597
69.85248714,56.73842196,59.50621784
69.98970840,56.89837050,59.64408233
70.20443825,57.14397513,59.76125643
70.31410806,57.40008576,59.90115780
70.55778302,57.68192539,60.11202830
70.77079760,57.99206690,60.21033448
70.91102058,58.21290738,60.37242710
71.03194683,58.40051458,60.48606346
71.08426244,58.59969983,60.54781304
71.22341338,58.75857633,60.68439108
71.31239280,58.88250429,60.69575472
71.49528302,59.15630360,60.89108062
71.57933105,59.29331046,60.92216981
71.72373499,59.49131647,61.08329760
71.82847341,59.65480274,61.18160377
71.99678388,59.86406518,61.33769297
72.13475557,60.13046741,61.48402659
72.22330617,60.30092196,61.54384648
72.37510720,60.51511578,61.61610206
72.52562178,60.75375214,61.81936106
72.72813036,61.00964837,61.97191252
72.83597770,61.17216981,62.08833619
72.99378216,61.39536878,62.23799314
73.09369640,61.55960549,62.31839623
73.20508148,61.80220840,62.41069897
73.37382075,61.97416381,62.58544168
73.48059605,62.18728559,62.61996141
72.91466552,61.55295883,62.15030017
71.57429245,59.91327187,61.05306604
70.65190823,58.53462693,60.18449828
70.29481132,57.81646655,59.85398799
70.23220412,57.56818182,59.71612350
70.26650943,57.58490566,59.81710978
70.31689537,57.60527444,59.91273585
70.29706261,57.57472127,59.91370069
70.34466123,57.60709691,59.87317753
70.40630360,57.67710120,59.86899657
70.35527444,57.65630360,59.88765009
70.28795026,57.52251286,59.82225557
70.14729846,57.34455403,59.72169811
70.15748285,57.32450686,59.69071612
70.23156089,57.43374786,59.77401372
70.37060463,57.64912093,59.88732847
70.57268439,57.88421955,60.06689537
70.74013722,58.11706690,60.19661235
70.91873928,58.39472556,60.36899657
70.99206690,58.52915952,60.42645798
71.12135506,58.71269297,60.52058319
71.24003002,58.88346913,60.64183105
71.36095626,59.02905232,60.71623070
71.44446827,59.21698113,60.79566895
71.56089194,59.36406518,60.88550600
71.64483276,59.55821184,60.96237136
71.71869640,59.66916810,61.07032590
71.82600772,59.85473842,61.18385506
71.98381218,60.06485849,61.32043310
72.12489280,60.28119640,61.43514151
72.26168525,60.48702830,61.55113636
72.36503002,60.65898370,61.64075901
72.48113208,60.88614923,61.76222127
72.63143225,61.05210120,61.87264151
72.77422813,61.25214408,62.03795026
72.84455403,61.38486278,62.08040309
72.95207976,61.60152230,62.22845197
73.05456690,61.79170240,62.33479846
73.18910806,61.97448542,62.42045455
73.27390652,62.13604202,62.53248285
73.35473842,62.26211407,62.63368353
72.85130789,61.77347770,62.14183105
71.78698542,60.39783448,61.25117925
70.94693396,59.29277444,60.51811750
70.69114494,58.73638508,60.26147084
70.67238422,58.61492281,60.21269297
70.73938679,58.64954974,60.21044168
70.81732419,58.67581475,60.31132075
70.83415523,58.65233705,60.28741424
70.90812607,58.70400943,60.30049314
70.94993568,58.75739708,60.35388079
70.90062178,58.71665952,60.33158233
70.81925386,58.59712693,60.23327616
70.72469983,58.44253859,60.08447684
70.70368782,58.40501715,60.12950257
70.75032161,58.46537307,60.19564751
70.91605918,58.61974700,60.37253431
70.99946398,58.76039880,60.45743997
71.17774443,59.00064322,60.57997427
71.23702830,59.08822899,60.62039022
71.34969983,59.27122642,60.75750429
71.38679245,59.40844768,60.76286449
71.45840480,59.52058319,60.80831904
71.51554460,59.68514151,60.92056175
71.58983705,59.77294168,60.97941681
71.69543310,59.89569039,61.05778302
71.81657376,60.07536449,61.14890652
71.95358062,60.26425815,61.26361492
72.01522298,60.37821612,61.32054031
72.04899228,60.52026158,61.40276587
72.13175386,60.64183105,61.47716552
72.30638937,60.86921098,61.65030017
72.39794168,61.02272727,61.76758148
72.52647942,61.22695111,61.84080189
72.62982419,61.44757719,61.91713122
72.74410377,61.59873499,61.99324614
72.82665094,61.72823756,62.10173671
72.95025729,61.90394511,62.21226415
73.04320326,62.06164237,62.29384648
73.13068182,62.20379503,62.34123070
72.65641081,61.70379503,61.99517581
71.67431389,60.48584906,61.13164666
71.01704545,59.53376930,60.56207118
70.75868353,59.07021870,60.26468696
70.80006432,58.97845197,60.29706261
70.81314322,58.96966123,60.26061321
70.82032590,58.94361063,60.25557461
70.79427530,58.83222556,60.26661664
70.79534734,58.83694254,60.25439537
70.84734134,58.93589194,60.24271012
70.82525729,58.90951973,60.28902230
70.74860635,58.78291166,60.21794597
70.71087050,58.69907804,60.19178816
70.68932247,58.62371355,60.17817324
70.72930961,58.71430103,60.19736278
70.87382075,58.86310034,60.29877787
70.97512864,59.03087479,60.44168096
71.10591767,59.20626072,60.57590051
71.20701115,59.36352916,60.64804889
71.27701544,59.46633791,60.70240137
71.37746569,59.60731132,60.78226844
71.47180532,59.76704545,60.88604202
71.51725986,59.88882933,60.90276587
71.60323756,60.04063036,61.02562178
71.71740995,60.15180103,61.08040309
71.77444254,60.32547170,61.15051458
71.86921098,60.43138937,61.23885077
72.01104202,60.59809177,61.41798885
72.11663808,60.76993997,61.49764151
72.21054889,60.92710120,61.58983705
72.30070755,61.07557890,61.65919811
72.46987564,61.28634220,61.75268010
72.54781304,61.42774443,61.88421955
72.68535592,61.64719125,62.01104202
72.74774871,61.79491852,62.11803173
72.87585763,61.99035163,62.18825043
72.96644511,62.12446398,62.30799743
73.08962264,62.28066038,62.35377358
73.19757719,62.46108491,62.45808319
73.32193396,62.66348628,62.56700257
73.43096055,62.82954545,62.67560034
72.94768439,62.31346484,62.18910806
71.89976415,61.03312607,61.41219983
71.17302744,59.95926244,60.75771870
70.89365352,59.42388508,60.38379074
70.88411235,59.25889794,60.38840051
70.92002573,59.22555746,60.40330189
70.92367067,59.19446827,60.38379074
70.89236707,59.12071184,60.40330189
70.92549314,59.11738851,60.42806604
70.94725557,59.13164666,60.42602916
70.92795883,59.07997427,60.43181818
70.82236278,58.89654803,60.31678816
70.69789880,58.72212693,60.19446827
70.68739280,58.68739280,60.17474271
70.71537307,58.71215695,60.14954974
70.78012436,58.80671098,60.20315180
70.92742281,58.95936964,60.37810892
71.07375643,59.12735849,60.50536021
71.18267581,59.28752144,60.63357633
71.29984991,59.48831475,60.70636792
71.37124786,59.57322041,60.78655660
71.43256861,59.68685678,60.80778302
71.48241852,59.78087479,60.87114065
71.56485849,59.90662521,60.96408662
71.67367067,60.07268439,61.03602058
71.74796312,60.16691681,61.11867496
71.83136792,60.33394082,61.21901801
71.89418954,60.47609348,61.31121355
71.95433105,60.60548885,61.39987136
72.11953259,60.76876072,61.54706261
72.26704545,60.97737993,61.61910377
72.33597770,61.11213551,61.72641509
72.39386792,61.23263293,61.78795026
72.53848628,61.42292024,61.87146226
72.64108062,61.58361921,61.95733276
72.71816038,61.76211407,62.07579331
72.85430961,61.92120497,62.20293739
72.91509434,62.03902230,62.21204974
73.04524014,62.19982847,62.33554889
73.10763293,62.33576329,62.44532590
72.66230703,61.87328473,61.98970840
71.62660806,60.57171955,61.11738851
70.87703688,59.46301458,60.47587907
70.51929674,58.80703259,60.06024871
70.47330617,58.59830617,60.02326329
70.49871355,58.55360206,60.05381647
70.54984991,58.53312607,60.06828902
70.52069039,58.46280017,60.03612779
70.52690823,58.44457547,59.98402659
70.58008148,58.48424099,60.07386364
70.49592624,58.38507719,60.05789022
70.36395798,58.16412950,59.88904374
70.21258576,57.98466981,59.76404374
70.15866209,57.88143225,59.72877358
70.21869640,57.94575472,59.71590909
70.29481132,58.02508576,59.81282161
70.48198971,58.23456261,59.99271012
70.59133791,58.40480274,60.08211835
70.69886364,58.54213122,60.17420669
70.75418096,58.65748285,60.23831475
70.82825901,58.79352487,60.32054031
70.90705403,58.89847770,60.41520154
71.00203688,59.03419811,60.47695111
71.03934391,59.10752573,60.48745712
71.16059177,59.27229846,60.62500000
71.28837907,59.41959691,60.72148370
71.36974700,59.58051029,60.77519297
71.46044168,59.70958405,60.89847770
71.57718696,59.86813894,61.00021441
71.64590480,60.00568182,61.02433533
71.75042882,60.18503431,61.12071184
71.93406947,60.40190823,61.32322041
72.04834906,60.57171955,61.39719125
72.12510720,60.72780875,61.54213122
72.22234134,60.88057461,61.59626930
72.35130789,61.04706261,61.72159091
72.49753431,61.26447256,61.85516724
72.44210978,61.30746141,61.83233276
71.71816038,60.41948971,61.08994425
70.71955403,59.05467410,60.24978559
70.00707547,57.98070326,59.67517153
69.82171955,57.56357204,59.44286021
69.80531732,57.45754717,59.41144940
69.85709691,57.40705403,59.46580189
69.84701973,57.37446398,59.47180532
69.85966981,57.35216552,59.46687393
69.91080617,57.40287307,59.49785592
69.93782161,57.43996569,59.54695540
69.85645369,57.31593053,59.43900086
69.70283019,57.10999142,59.29781304
69.60270154,57.01072041,59.21012007
69.64408233,56.99892796,59.25428816
69.74721269,57.11256432,59.35205832
69.86470840,57.26329331,59.49463979
69.99860635,57.45593911,59.66563036
70.18599914,57.69350343,59.75117925
70.28848628,57.88025300,59.79834906
70.42495712,58.07911664,59.94554031
70.54845626,58.27079760,60.07161235
70.61578045,58.40566038,60.14429674
70.73466981,58.56614494,60.28205403
70.82965266,58.69135935,60.34273156
70.93857204,58.89890652,60.45079331
71.02722985,59.04781304,60.54245283
71.19178816,59.25289451,60.62081904
71.29759863,59.42710120,60.74978559
71.39311750,59.58565609,60.81678816
71.54706261,59.76211407,60.98252573
71.62596484,59.95422384,61.07836621
71.81378645,60.19200257,61.23659949
71.99710549,60.41391509,61.38025300
72.08040309,60.55424528,61.46933962
72.19650515,60.73960120,61.51404374
72.34369640,60.96054889,61.69060892
72.45047170,61.15308748,61.76886792
72.63957976,61.37671527,61.98520583
72.73788593,61.54298885,62.04213122
72.72555746,61.57504288,62.05767581
71.80992710,60.52605060,61.27583619
70.66573756,59.02873070,60.24035163
69.99313894,57.95754717,59.60913379
69.74699828,57.45304460,59.41187822
69.73456261,57.27101201,59.36513722
69.75643225,57.28709262,59.43074614
69.77551458,57.23241852,59.40265866
69.75117925,57.13925815,59.40598199
69.79202401,57.19446827,59.40608919
69.78237564,57.23627787,59.43932247
69.71762436,57.13357633,59.42710120
69.62489280,56.96665952,59.24774871
69.50600343,56.79566895,59.23349057
69.51286449,56.79974271,59.25793310
69.61427959,56.90737564,59.32054031
69.79674099,57.12071184,59.44939966
69.94286021,57.30628216,59.54363208
70.11588765,57.54641938,59.69714837
70.23048885,57.73799314,59.77808748
70.37081904,57.95851201,59.93321184
70.47780875,58.14997856,60.02111921
70.54030875,58.29116638,60.06325043
70.69093053,58.45743997,60.21237136
70.77144082,58.59198113,60.27594340
70.86149228,58.77058319,60.34691252
70.95508148,58.88947256,60.41563036
71.10816895,59.11159949,60.56936106
71.23241852,59.28687822,60.64901372
71.34058748,59.47352058,60.76168525
71.47137650,59.65726844,60.89890652
71.61009863,59.85881218,61.02519297
71.76736707,60.09969983,61.17988851
71.89333190,60.26704545,61.28784305
72.02101201,60.45840480,61.39665523
72.14954974,60.66798885,61.46237136
72.23659949,60.83780017,61.59251715
72.39140223,61.05435249,61.73359777
72.47973842,61.19414666,61.81786021
72.59219554,61.40415952,61.92753002
72.45218696,61.27594340,61.83340480
71.34980703,59.99195969,60.92484991
70.38807890,58.63507719,60.00986278
69.77701544,57.65523156,59.38250429
69.66745283,57.35227273,59.33147513
69.69393225,57.30756861,59.35559605
69.77733705,57.32064751,59.39397513
69.81721698,57.30821184,59.41820326
69.79352487,57.31603774,59.44854202
69.89075901,57.37853774,59.47973842
69.90319468,57.39075901,59.51511578
69.84659091,57.33587050,59.44929245
69.67581475,57.11020583,59.34326758
69.59208834,57.00160806,59.27798027
69.66809605,57.05896226,59.29180961
69.80435249,57.24153087,59.46665952
69.94618353,57.44725557,59.60977702
70.10934820,57.65137221,59.67731561
70.24667667,57.84101630,59.69543310
70.37993139,58.04588336,59.89622642
70.51286449,58.20475986,60.05789022
70.60816895,58.38325472,60.14011578
70.67570755,58.49303173,60.18942967
70.78762864,58.65576758,60.30027873
70.83147513,58.79974271,60.33962264
70.97341338,58.99228130,60.43396226
71.08361921,59.16037736,60.57246998
71.14033019,59.25160806,60.57965266
71.28162521,59.44328902,60.72823756
71.39708405,59.61149228,60.83554889
71.50889794,59.79834906,60.95379503
71.66123499,60.00364494,61.06839623
71.77915952,60.15201544,61.17645798
71.91359348,60.38400515,61.26436535
72.06485849,60.59637650,61.47545026
72.17377787,60.76940395,61.52369211
72.27851630,60.90909091,61.62757290
72.34648370,61.03773585,61.68439108
71.89301029,60.55167238,61.27036878
70.74067324,59.14268868,60.30456690
69.94103774,57.90909091,59.61963979
69.58662093,57.25364494,59.22834477
69.52905232,57.02004717,59.21708834
69.58790738,57.04695540,59.24271012
69.64987136,57.05553173,59.31067753
69.68149657,57.08501286,59.31507290
69.77948113,57.19350343,59.42249142
69.81828902,57.24153087,59.47287736
69.78430532,57.20197256,59.43589194
69.64215266,57.02315609,59.24957118
69.48113208,56.84133791,59.16037736
69.44103774,56.75964837,59.10720412
69.59509005,56.91241424,59.15941252
69.78644940,57.11020583,59.40801887
69.88057461,57.29867067,59.49506861
70.05231561,57.52079760,59.61556604
70.20068611,57.74292453,59.72662950
70.29127358,57.91863208,59.75846913
70.43471269,58.11117067,59.95358062
70.54652659,58.32032590,60.06239280
70.62864494,58.43910806,60.10827616
70.73960120,58.60559605,60.22394940
70.79899228,58.70743997,60.28098199
70.93910806,58.94210978,60.40844768
71.07686535,59.10409520,60.54213122
70.64837050,58.67667238,60.11277873
69.73874357,57.48016724,59.42549314
69.01340051,56.40598199,58.76811750
68.67785163,55.85495283,58.49796312
68.70207976,55.76211407,58.51683105
68.75225129,55.76404374,58.53612779
68.81818182,55.86192110,58.59305317
68.88346913,55.90812607,58.59573328
69.06164237,56.13153945,58.81893225
69.16680961,56.28323328,58.93460549
69.09090909,56.28666381,58.83983705
69.02304889,56.16455832,58.73209691
68.96119211,56.04438250,58.68975129
69.03430532,56.13936535,58.71976844
69.21172813,56.32343482,58.93621355
69.39611921,56.58737136,59.10752573
69.57386364,56.84058748,59.22309177
69.75032161,57.07150515,59.39804889
69.93589194,57.37435678,59.53709262
70.09208834,57.60388079,59.65726844
70.29373928,57.83126072,59.80981990
70.34369640,57.98606346,59.86921098
70.50139365,58.23123928,60.00246569
70.60774014,58.39740566,60.12703688
70.71419383,58.58897942,60.22084048
70.85591767,58.80767581,60.35741852
71.02165523,59.00921955,60.48027444
71.11545883,59.17120497,60.55456690
71.28848628,59.40255146,60.74774871
71.46054889,59.64879931,60.88421955
71.61363636,59.86792453,60.99163808
71.75643225,60.07397084,61.12907376
71.91209262,60.30360206,61.26629503
72.06121355,60.52605060,61.41241424
72.19039451,60.71526587,61.47620069
72.30156518,60.90147942,61.64118782
72.45561750,61.18246141,61.78001715
72.60270154,61.37821612,61.92045455
72.55660377,61.35248714,61.86385077
71.46258576,60.04256003,60.89912093
70.29931389,58.50000000,59.87114065
69.60602487,57.41948971,59.30328045
69.46430103,57.00525300,59.13196827
69.46033448,56.87843053,59.15030017
69.56121355,56.93364065,59.20894082
69.55285163,56.91241424,59.21237136
69.58415523,56.96215695,59.23852916
69.71012007,57.09476844,59.34133791
69.71762436,57.09884220,59.33919383
69.65394511,56.99399657,59.27508576
69.50300172,56.79566895,59.15951973
69.43492710,56.71794597,59.11631647
69.47212693,56.76929674,59.12607204
69.66680961,56.99249571,59.32697256
69.86417238,57.17013293,59.46944683
70.04845626,57.43610635,59.54524014
70.19822041,57.67999571,59.72201973
70.37371355,57.90201544,59.88915094
70.50000000,58.11813894,60.02701544
70.61127787,58.31367925,60.04566895
70.74431818,58.47973842,60.12253431
70.84519726,58.64601201,60.22234134
70.96826758,58.78516295,60.34969983
71.06668096,58.98949400,60.46333619
71.16970412,59.15555317,60.58994425
71.33608491,59.35323756,60.69800600
71.47523585,59.56507290,60.84165952
71.59380360,59.75996998,60.97137650
71.70926244,59.93653516,61.05553173
71.83587050,60.16948971,61.17570755
72.01479417,60.41187822,61.38700686
72.13786449,60.61771012,61.45175815
72.27036878,60.81539451,61.51758148
72.41766724,61.04416810,61.68417667
72.57965266,61.25075043,61.82793739
72.67013293,61.41134220,61.98638508
72.86653087,61.64311750,62.10816895
72.92945969,61.79652659,62.18803602
72.68878645,61.55027873,61.94286021
71.55220840,60.17592196,60.99131647
70.66702401,58.92602916,60.21226415
70.27251286,58.21204974,59.76929674
70.18021012,57.94286021,59.70079331
70.19296741,57.92152659,59.71762436
70.32300600,57.99560463,59.79298885
70.33522727,57.97737993,59.83093911
70.34701973,57.96301458,59.80113636
70.43599914,58.03334048,59.85859777
70.44639794,58.05681818,59.90008576
70.37939537,57.96837479,59.81078473
70.29009434,57.82311321,59.70861921
70.24903516,57.75825472,59.70808319
70.31250000,57.81914666,59.77926672
70.48059605,58.01640223,59.91455832
70.67163379,58.24989280,60.04984991
70.75911235,58.42420669,60.13454117
70.91295026,58.64193825,60.27958834
71.00203688,58.80135077,60.37875214
71.15694683,58.98327616,60.53816467
71.27240566,59.15405232,60.58822899
71.38089623,59.31528731,60.64418954
71.42763722,59.40769726,60.78419811
71.55896226,59.59626930,60.92131218
71.63443396,59.77058319,60.92474271
71.77551458,59.93610635,61.05231561
71.82697256,60.06410806,61.13700686
71.98649228,60.28473413,61.27787307
72.10388079,60.45894082,61.36481561
72.22448542,60.63186106,61.46012007
72.35237993,60.80242281,61.57386364
72.47952401,60.98938679,61.70315180
72.58758576,61.17570755,61.79727702
72.72266295,61.40448113,61.86910377
72.88218268,61.60924099,62.06593053
72.99399657,61.75986278,62.16423671
73.10999142,61.93439108,62.28044597
73.22137650,62.12725129,62.35774014
73.33704974,62.32482847,62.45626072
73.39547599,62.45400943,62.52562178
72.83340480,61.79180961,62.09112350
71.90362350,60.61202830,61.22373499
71.38464837,59.79545455,60.75192967
71.24313894,59.52422813,60.58855060
71.28848628,59.48038165,60.63153945
71.32975986,59.49614065,60.67216981
71.38507719,59.51886792,60.72705832
71.37843053,59.47362779,60.68953688
71.38990137,59.52712264,60.72566467
71.47341338,59.59948542,60.81475129
71.45711835,59.56539451,60.76693825
71.34937822,59.40683962,60.63904374
71.27487136,59.31710978,60.59476844
71.33179674,59.33972985,60.65319468
71.38186106,59.39258148,60.69275300
71.47620069,59.58447684,60.72813036
71.60473842,59.72973842,60.85237993
71.70604631,59.90072899,60.95368782
71.80917667,60.02765866,61.04802744
71.94918525,60.21119211,61.19725557
71.98359777,60.32858062,61.24110206
72.09262436,60.46119211,61.28752144
72.16134220,60.60774014,61.46580189
72.26618782,60.75139365,61.48102487
72.30778302,60.84959262,61.57729417
72.42667238,61.02315609,61.66723842
72.50235849,61.15072899,61.79609777
72.62006861,61.31689537,61.90072899
72.73263293,61.47019726,61.96440823
72.82332762,61.63786449,62.03280446
72.94961407,61.79759863,62.16788165
