R,G,B
59.79213122,73.95272298,63.18535592
59.85516724,74.06550172,63.22352058
59.91102058,74.22534305,63.30381647
60.12167667,74.39654803,63.47094768
60.23316895,74.48788593,63.73788593
60.35816895,74.67270583,63.83501286
60.49839194,74.78848628,63.95379503
60.56689537,75.05831904,63.95711835
60.62639365,75.21794597,64.03591338
60.72898799,75.40008576,64.15201544
60.79180961,75.53151801,64.24828473
60.75364494,75.50300172,64.15673242
60.32472127,74.89161664,63.78291166
59.84852058,74.11117067,63.24067324
59.53655660,73.53741424,62.96065609
59.43042453,73.26704545,62.84852058
59.34937822,73.15040738,62.75010720
59.30585334,73.12146226,62.73252573
59.40630360,73.20047170,62.82568611
59.50664666,73.38121784,62.98863636
59.62296312,73.54856346,63.08479846
59.67645798,73.60891938,63.10420240
59.68385506,73.63175386,63.14869211
59.78259005,73.76114923,63.16766724
59.81335763,73.85838336,63.31314322
59.92109777,73.99785592,63.38207547
60.01082762,74.14526158,63.42613636
60.17409949,74.37307033,63.60698971
60.28719983,74.55220840,63.75182247
60.34809177,74.66798885,63.80692539
60.48531304,74.85966981,63.91155660
60.09155232,74.45904803,63.28173242
60.18117496,74.56732419,63.35484563
60.29727702,74.72716552,63.44714837
60.38464837,74.85398799,63.64708405
60.49388937,75.02798027,63.66691681
60.56743139,75.22244854,63.75225129
60.68074614,75.32954545,63.87928816
60.75289451,75.48702830,63.88968696
60.60237993,75.27712264,63.73252573
60.18342624,74.62489280,63.34208834
59.73638508,73.86996141,62.87382075
59.48477702,73.44875643,62.70883362
59.38175386,73.26575901,62.61331475
59.38454117,73.20422384,62.60087907
59.37746569,73.23552744,62.61653087
59.47952401,73.32943825,62.65298027
59.64408233,73.53237564,62.83833619
59.65340909,73.60495283,62.87639365
59.72695111,73.68149657,62.90426672
59.80810463,73.78987993,62.99699828
59.85613208,73.87114065,63.01865352
59.97834477,74.02551458,63.13679245
60.07890223,74.18889365,63.24849914
60.18299743,74.35581046,63.31271441
60.28494854,74.49614065,63.45626072
60.37617925,74.64033019,63.56571612
60.50568182,74.82171955,63.62360635
60.56432247,74.97319897,63.70390223
60.65072899,75.15415952,63.78173242
60.74035163,75.25857633,63.91273585
60.82922384,75.39697684,63.95915523
60.90276587,75.58136792,64.06314322
60.96869640,75.67517153,64.12285592
61.09240995,75.87971698,64.22984563
61.16498714,75.98488422,64.31871784
61.20936964,76.09573328,64.39161664
61.01254288,75.81185678,64.15962693
60.48531304,74.99903516,63.63368353
60.05713979,74.17506432,63.09208834
59.77358491,73.59905660,62.89429674
59.64912093,73.32772298,62.72695111
59.57815180,73.20679674,62.62081904
59.57804460,73.19446827,62.63357633
59.63314751,73.23949400,62.74635506
59.70229417,73.36117067,62.82472127
59.79974271,73.50450257,62.92667238
59.83629931,73.51168525,62.92013293
59.90619640,73.59080189,63.01725986
59.96440823,73.69018010,63.03194683
60.02658662,73.78430532,63.08469125
60.16745283,73.99185249,63.22126930
60.22030446,74.07300600,63.23509863
60.34777015,74.24978559,63.36063465
60.41412950,74.35816895,63.40533877
60.52208405,74.54738422,63.50343053
60.58726415,74.67581475,63.60806175
60.69521870,74.83694254,63.70165094
60.78945111,74.98649228,63.80531732
60.86953259,75.11653087,63.84616209
60.94972127,75.25804031,63.96172813
61.01586621,75.36578045,63.99206690
61.15373070,75.54738422,64.17688679
61.19028731,75.72137650,64.19328902
61.27186964,75.83168954,64.26286449
61.28580617,75.86813894,64.28623499
60.95508148,75.34294597,63.92484991
60.40383791,74.52433533,63.44800600
60.00900515,73.66209262,62.94403945
59.80735420,73.22223413,62.70722556
59.69018010,73.04138079,62.63228988
59.62328473,72.93653516,62.54759863
59.62103345,72.94200257,62.58887221
59.72212693,73.03816467,62.70261578
59.86256432,73.21397942,62.85977702
59.88572041,73.27315609,62.79974271
59.90598199,73.32750858,62.83308319
60.00536021,73.45776158,62.93782161
60.07268439,73.51865352,63.00879074
60.17570755,73.69436106,63.08093911
60.25804031,73.84251715,63.21344340
60.38775729,74.03827187,63.33158233
60.47652230,74.20443825,63.41841767
60.56753859,74.34819897,63.51136364
60.69018010,74.52787307,63.58233276
60.76072041,74.67152659,63.64365352
60.87671527,74.85398799,63.81668096
60.95154374,75.01693825,63.80853345
61.01254288,75.10559605,63.93685678
61.16841767,75.30521012,64.02004717
61.21054889,75.41895369,64.15544597
61.29427530,75.60237993,64.23960120
61.39440395,75.74088765,64.30864065
61.48048885,75.86921098,64.36363636
61.42710120,75.94961407,64.35012864
61.06185678,75.40405232,63.99195969
60.60559605,74.56871784,63.49367496
60.20947684,73.81946827,63.04223842
60.03259005,73.47834477,62.93160377
59.99989280,73.34509005,62.84509005
59.93224700,73.26457976,62.85270154
59.99088765,73.34551887,62.90791166
60.09240995,73.49463979,63.06668096
60.15448113,73.62081904,63.04899228
60.16016295,73.71698113,63.01457976
60.23638508,73.78162521,63.10473842
60.33051029,73.85924099,63.22116209
60.36267153,73.91670240,63.27326329
60.46569468,74.06753859,63.39515437
60.53237564,74.20261578,63.37071184
60.61342196,74.39022298,63.50171527
60.72748714,74.56046312,63.58576329
60.78226844,74.65705403,63.67463551
60.89086621,74.87457118,63.78687822
60.91948971,74.96944683,63.81057033
61.04352487,75.10506003,63.88014580
61.14686964,75.28730703,64.02851630
61.19736278,75.38732847,64.03505575
61.30692539,75.54470412,64.17249142
61.34080189,75.63925815,64.21966123
61.41970412,75.79877787,64.35409520
61.30671098,75.65576758,64.18192539
60.84391081,74.95626072,63.70411664
60.39697684,74.17720840,63.28355489
60.04995712,73.55789022,62.98048885
59.86631647,73.34251715,62.77262007
59.83490566,73.26114923,62.79052316
59.87285592,73.26050600,62.82268439
59.97834477,73.41595197,62.89386792
60.08072470,73.54084477,63.01683105
60.16252144,73.71269297,63.11042024
60.17517153,73.72319897,63.08662093
60.19704117,73.77358491,63.12778731
60.24592624,73.87864494,63.18932247
60.36449400,74.00364494,63.32397084
60.45411664,74.17495712,63.33726415
60.49078045,74.26329331,63.40973413
60.64033019,74.48402659,63.52047599
60.65791166,74.56507290,63.56743139
60.77765866,74.78409091,63.72362779
60.84305317,74.90716123,63.79652659
60.91981132,75.04395369,63.84283877
60.98734991,75.14343911,63.93310463
61.02840909,75.25804031,63.99217410
61.12414237,75.39258148,64.06153516
61.18707118,75.52283448,64.05864065
61.29084477,75.66048456,64.20765437
61.37564322,75.81796741,64.28301887
61.30821184,75.80285163,64.21687393
60.96183533,75.27208405,63.86342196
60.33040309,74.30660377,63.23627787
59.84294597,73.47459262,62.83672813
59.59230274,72.93299743,62.44543310
59.45636792,72.68621355,62.31871784
59.41638079,72.59305317,62.36556604
59.38411235,72.59637650,62.31185678
59.48810034,72.74946398,62.46451544
59.54406089,72.83822899,62.58286878
59.64547599,72.97545026,62.60538165
59.66563036,72.99817753,62.64118782
59.68374786,73.08940823,62.70068611
59.77680103,73.17517153,62.72169811
59.85741852,73.30917667,62.81668096
59.97545026,73.51747427,62.95872642
60.07825901,73.65544597,63.03473413
60.17753002,73.79566895,63.06861063
60.30102916,73.96976844,63.23692110
60.33812178,74.07268439,63.25128645
60.43364065,74.26275729,63.38089623
60.49474700,74.39654803,63.42484991
60.59240995,74.56732419,63.54052316
60.67581475,74.66123499,63.58297599
60.75761149,74.81571612,63.69993568
60.86717410,74.97973842,63.82364923
60.93074614,75.08662093,63.89515437
61.01318611,75.23466981,63.92978130
60.91520154,75.11888937,63.82986707
60.42056175,74.44457547,63.33051029
59.84948542,73.49249571,62.79631218
59.52197684,72.78569897,62.40791166
59.34691252,72.44318182,62.22427101
59.24088765,72.27712264,62.13689966
59.24817753,72.27047599,62.19607633
59.27658662,72.34498285,62.23885077
59.42656518,72.53334048,62.40512436
59.55746141,72.70047170,62.49635506
59.57322041,72.76511578,62.52583619
59.54138079,72.86492281,62.50042882
59.59015866,72.88304031,62.54749142
59.74978559,73.04073756,62.63743568
59.80746141,73.13765009,62.69982847
59.93171098,73.31764580,62.83458405
60.02208405,73.50964837,62.95540309
60.10977702,73.62307033,63.03023156
60.19725557,73.81303602,63.16659520
60.29395369,73.91723842,63.18246141
60.37800172,74.08619211,63.27680103
60.43235420,74.25246569,63.35709691
60.52915952,74.36599485,63.43224700
60.64429674,74.50171527,63.56903945
60.70240137,74.63850772,63.63293310
60.76865352,74.75278731,63.67731561
60.82579331,74.87896655,63.72502144
60.79491852,74.85709691,63.68021012
60.34348199,74.20240137,63.23327616
59.80574614,73.28130360,62.72748714
59.44607633,72.66841767,62.31571612
59.23659949,72.29942110,62.12639365
59.19393225,72.24067324,62.08930103
59.19060892,72.24399657,62.14451115
59.25686106,72.33940823,62.21462264
59.37103345,72.51404374,62.29170240
59.40490995,72.58201115,62.32772298
59.45990566,72.63143225,62.37628645
59.44639794,72.63121784,62.38550600
59.47673671,72.74774871,62.43621355
59.53859348,72.79138079,62.46998285
59.63840051,72.96215695,62.57043310
59.73702830,73.11738851,62.71108491
59.78130360,73.21933962,62.72277015
59.91895369,73.41273585,62.89472556
59.97234134,73.52358491,62.95154374
60.02176244,73.67013293,63.00182247
60.14429674,73.79052316,63.10313036
60.19639794,73.88572041,63.17088336
60.27465695,74.01222127,63.20969125
60.32515009,74.14719125,63.30135077
60.38647084,74.25268010,63.38432676
60.10109348,73.87853774,63.05563894
59.57579331,73.03677101,62.49967839
59.08758576,72.25975557,62.02262007
58.79331046,71.77015437,61.73413379
58.69746998,71.62114065,61.71376501
58.63379074,71.56818182,61.63936535
58.63668525,71.58201115,61.67699400
58.78945111,71.79009434,61.83340480
58.86545883,71.92484991,61.95122213
58.94554031,72.04352487,62.00192967
58.96794597,72.07364923,61.98359777
58.97084048,72.13786449,61.94296741
59.09744854,72.28012436,62.12360635
59.14719125,72.38346913,62.17742281
59.26125643,72.52755146,62.27369211
59.29599057,72.67420669,62.33179674
59.43471269,72.85259434,62.44564751
59.52412093,73.02626501,62.59766295
59.58415523,73.12853774,62.67785163
59.62146226,73.27969554,62.65576758
59.70454545,73.38486278,62.67838765
59.75739708,73.54513293,62.70786878
59.89311750,73.69779160,62.88904374
59.97384220,73.83704974,62.97834477
59.97437822,73.90405232,63.02926672
59.76136364,73.59240995,62.80746141
59.22051887,72.76490137,62.25139365
58.61374357,71.90319468,61.67120497
58.33704974,71.34691252,61.39322470
58.15180103,71.09090909,61.21869640
58.05124357,70.93203259,61.12714408
58.02894511,70.91959691,61.13593482
58.08919383,70.99914237,61.22813036
58.24431818,71.21580189,61.37103345
58.31292882,71.35623928,61.44264580
58.32772298,71.45358062,61.48531304
58.43760720,71.54652659,61.53923671
58.47630789,71.63582762,61.60087907
58.56378645,71.80177959,61.70658233
58.63872213,71.92817324,61.75085763
58.79084477,72.14011578,61.92034734
58.88218268,72.29984991,61.97394940
58.95668954,72.42088336,62.06582333
59.10130789,72.63797170,62.19350343
59.19361063,72.73198971,62.29138079
59.28687822,72.91938250,62.37585763
59.37875214,73.08201115,62.44972127
59.45250858,73.21472985,62.52626501
59.59787736,73.45122213,62.67849485
59.66981132,73.58576329,62.73070326
59.74849914,73.72834477,62.85012864
59.55563894,73.48509863,62.59058748
59.04631218,72.72598628,62.14622642
58.63679245,71.96355060,61.61963979
58.30756861,71.47309177,61.35280875
58.23220412,71.27015437,61.22877358
58.15019297,71.14890652,61.17635077
58.15394511,71.15137221,61.18760720
58.24228130,71.28966552,61.34691252
58.36535163,71.52036878,61.45561750
58.44018010,71.66552316,61.47105489
58.46655232,71.70990566,61.51479417
58.57568611,71.83404803,61.63722127
58.65662521,71.96987564,61.71944683
58.77412093,72.15941252,61.79148799
58.92141938,72.35902659,61.95936964
58.98692110,72.49421098,62.03580617
59.14815609,72.72662950,62.11470840
59.21548027,72.84884220,62.23949400
59.31635935,73.05821184,62.28248285
59.39483276,73.21301458,62.47373499
59.51961835,73.40233705,62.52776587
59.65919811,73.54727702,62.64633362
59.74699828,73.71976844,62.70068611
59.86931818,73.93814322,62.90834048
59.92549314,74.06936106,62.93106775
60.05338765,74.25557461,63.05724700
59.91477273,74.12489280,62.92635077
59.54020154,73.54663379,62.48702830
59.16959691,72.87414237,62.08833619
58.99774871,72.46151372,61.87746569
58.90222985,72.28987993,61.75278731
58.80992710,72.21022727,61.72437822
58.83790738,72.27251286,61.79481132
58.95551029,72.43063894,61.89633362
59.06668096,72.62349914,62.00514580
59.10752573,72.71365780,62.10602487
59.08672813,72.71537307,62.05135077
59.19253859,72.81668096,62.13164666
59.21912521,72.89901372,62.12628645
59.35313036,73.10270154,62.30381647
59.41273585,73.22920240,62.33790738
59.52948113,73.39569039,62.46515866
59.65105060,73.61052744,62.57750858
59.69650515,73.71623070,62.61181389
59.84123070,73.92527873,62.76725986
59.89365352,74.05381647,62.83640652
59.99710549,74.22180532,62.94564751
60.06646655,74.36427959,63.03430532
60.19950686,74.56357204,63.12124786
60.30145798,74.73713551,63.26672384
60.33190395,74.81732419,63.26993997
60.27487136,74.80231561,63.26629503
59.91134220,74.25889794,62.84316038
59.55874786,73.60506003,62.42795883
59.28719983,73.13239708,62.14097341
59.20593911,72.95851201,62.12746569
59.13872213,72.84562607,61.99292453
59.03301887,72.75578902,61.94125214
59.15587479,72.90222985,62.09562607
59.21633791,73.01565180,62.13164666
59.27894511,73.14922813,62.22727273
59.28527015,73.17720840,62.22030446
59.33029588,73.25782590,62.25568182
59.38647084,73.38153945,62.35216552
59.43074614,73.45861921,62.39536878
59.55703259,73.64987136,62.56925386
59.59326758,73.73070326,62.56196398
59.69425386,73.87821612,62.69618353
59.77433533,74.03719983,62.77948113
59.88057461,74.20883362,62.91552316
59.94200257,74.34294597,62.95872642
59.99324614,74.43492710,63.00782590
60.09862779,74.64065180,63.11685249
60.12071184,74.69039451,63.17131218
60.21708834,74.89118782,63.31807461
60.27948113,74.99924957,63.33243997
60.37307033,75.17431389,63.35355918
60.43975129,75.31518010,63.54695540
60.41241424,75.29599057,63.48488422
60.07397084,74.81496569,63.10398799
59.64762007,74.02111921,62.59251715
59.33051029,73.44907804,62.30242281
59.12746569,73.08008148,62.04513293
59.00943396,72.89665523,61.95969125
58.90651801,72.74828473,61.87349914
58.92720840,72.74603345,61.89547599
59.00804031,72.85430961,62.02069039
59.01715266,72.93889365,62.07547170
59.05864065,73.00225129,62.05628216
59.03795026,73.00600343,62.10034305
59.07450686,73.06978988,62.13196827
59.15222985,73.17024014,62.21805317
59.18396226,73.27572899,62.23349057
59.25868353,73.41305746,62.32922384
59.34005146,73.53301887,62.38850772
59.44403945,73.69639794,62.52744425
59.51490137,73.84273156,62.57000429
59.56796741,73.95197256,62.70304460
59.66670240,74.10259434,62.76768868
59.74656947,74.22298456,62.86363636
59.84337479,74.37296312,62.95658233
59.85666810,74.48059605,63.02111921
59.96226415,74.63936535,63.09305317
60.00793310,74.78130360,63.19746998
60.10045026,74.89912093,63.27990995
60.23252573,75.11910377,63.40083619
60.23788593,75.21344340,63.39118782
60.16498714,75.09037307,63.31593053
59.72352058,74.41391509,62.81850343
59.30928388,73.72802316,62.41841767
59.04448971,73.18449828,62.11524443
58.90748285,72.88025300,61.96022727
58.82922384,72.76597341,61.87274871
58.74378216,72.65115780,61.82740137
58.75868353,72.67613636,61.80177959
58.83597770,72.79759863,61.93246141
58.93921527,72.91305746,62.03548456
58.94757719,72.97437822,62.06850343
58.96247856,73.00536021,62.04116638
59.04180961,73.06946827,62.13036021
59.05370926,73.14075901,62.18985849
59.17227702,73.31014151,62.29834906
59.24078045,73.44511149,62.34927101
59.33297599,73.57675815,62.45368782
59.43857204,73.72716552,62.55092196
59.46633791,73.88228988,62.64258148
59.61052744,74.03312607,62.74689108
59.64858491,74.17388508,62.82997427
59.75739708,74.33737136,62.91713122
59.81625214,74.46183533,62.96119211
59.86963979,74.56668096,63.04952830
59.98391938,74.73584906,63.19039451
60.01843911,74.84948542,63.22298456
60.13561321,75.03805746,63.36545883
60.21387221,75.13454117,63.41520154
60.26490137,75.28183962,63.51168525
60.02476415,74.97330617,63.21730274
59.62939537,74.27390652,62.81700257
59.25160806,73.59337479,62.33479846
59.05081475,73.15651801,62.17924528
58.95293739,73.02154803,62.08179674
58.88625643,72.91670240,62.04277444
58.85634648,72.89794168,62.00814751
58.98852916,73.02969554,62.17163379
59.00053602,73.10409520,62.19178816
59.02990995,73.14697684,62.23081046
59.03752144,73.15587479,62.21548027
59.06121355,73.19950686,62.29834906
59.12832333,73.27390652,62.35216552
59.16756003,73.34530446,62.37403516
59.29684820,73.52519297,62.48981561
59.35098628,73.62307033,62.57997427
59.47266295,73.84058748,62.68878645
59.54406089,73.93621355,62.74367496
59.64847770,74.08758576,62.83651372
59.73231132,74.26018439,62.94950686
59.71269297,74.38614923,62.94082333
59.81346484,74.49571184,63.04759863
59.89161664,74.59509005,63.12081904
59.98917238,74.75482419,63.22480703
60.06228559,74.85709691,63.28891509
60.18771441,75.05456690,63.42399228
60.24871355,75.15201544,63.49442539
60.03023156,74.96204974,63.27894511
59.66680961,74.34777015,62.88614923
59.18085334,73.48874357,62.33930103
58.88840051,72.93192539,62.09037307
58.74742710,72.63807890,61.94318182
58.64108062,72.45733276,61.79759863
58.64429674,72.43889365,61.80295883
58.63175386,72.44414666,61.80821184
58.76575901,72.59358919,61.96837479
58.79234563,72.65169383,61.99967839
58.82343482,72.73102487,62.02948113
58.84541166,72.76050600,62.00000000
58.90137221,72.81174957,62.05703259
59.00728988,72.95711835,62.16638079
59.08512007,73.07096913,62.26565180
59.20561750,73.22662950,62.41359348
59.27530017,73.37778731,62.48048885
59.33211835,73.52722985,62.48842196
59.44929245,73.67828045,62.61138508
59.54288165,73.83254717,62.68610635
59.66402230,73.99549743,62.86256432
59.72062607,74.07654374,62.90951973
59.84058748,74.24517581,63.01361492
59.89708405,74.39408233,63.06303602
60.00042882,74.55274443,63.16059177
60.08158233,74.70400943,63.16455832
60.15533877,74.86374357,63.36202830
60.25246569,74.99088765,63.44243139
60.25396655,75.03334048,63.48981561
59.94350343,74.61867496,63.05263722
59.41359348,73.73156089,62.55060034
58.91831046,72.85827616,62.03108919
58.66584477,72.34358919,61.79427530
58.52690823,72.04363208,61.64483276
58.45904803,71.88850772,61.62414237
58.40298027,71.85774014,61.57643654
58.48274014,71.96387221,61.69114494
58.58608491,72.12768010,61.74003002
58.59294597,72.16948971,61.77733705
58.66305746,72.24131647,61.83608491
58.67988851,72.31174957,61.87950257
58.78280446,72.41123499,61.93439108
58.87639365,72.54641938,62.10345197
58.98081046,72.71237136,62.17292024
59.10741852,72.89000858,62.28730703
59.20315180,73.07429245,62.33887221
59.32879503,73.25182247,62.44436106
59.41219983,73.40576758,62.56421527
59.55713979,73.60366638,62.67249142
59.68063894,73.77111921,62.79727702
59.75578902,73.88593482,62.87671527
59.85784734,74.06646655,62.95304460
59.92227702,74.22888079,63.03098199
60.06646655,74.40458834,63.17753002
60.19650515,74.58329760,63.33136792
60.18825043,74.74807033,63.26715266
60.32954545,74.89215266,63.45561750
60.26114923,74.86963979,63.42281304
59.87746569,74.30199400,62.99496141
59.33897942,73.41916810,62.43846484
58.90244425,72.62478559,62.00728988
58.74142367,72.23048885,61.77873070
58.60709691,71.97180532,61.64912093
58.53698542,71.90362350,61.67828045
58.55703259,71.96333619,61.74249571
58.67227702,72.15619640,61.82450686
58.79609777,72.33254717,61.92474271
58.82450686,72.37596484,61.92442110
58.85302316,72.45358062,61.99174528
58.90190823,72.51382933,62.05521012
59.03580617,72.66209262,62.15694683
59.06936106,72.75525300,62.18964408
59.19639794,72.95240137,62.37692967
59.32793739,73.15533877,62.43213979
59.38475557,73.27176244,62.45829760
59.50514580,73.45690395,62.59112350
59.60506003,73.60591767,62.72405660
59.68835763,73.75632504,62.75868353
59.82697256,73.97469983,62.98006003
59.85152230,74.08458405,63.00825472
59.94864923,74.24817753,63.10731132
60.04749142,74.37746569,63.20400943
60.15330189,74.57461407,63.28237564
60.26457976,74.71912521,63.35591767
60.26618782,74.75546741,63.37039022
59.98134648,74.37006861,63.05488851
59.34616209,73.53891509,62.61267153
58.98992281,72.82783019,62.13529160
58.75536021,72.35806175,61.85913379
58.69328902,72.23509863,61.75546741
58.65555317,72.19757719,61.88582762
58.71044168,72.22587907,61.89719125
58.89247427,72.45808319,62.05821184
58.90233705,72.58908662,62.15147942
58.97319897,72.69746998,62.14193825
59.00482419,72.72995283,62.19757719
59.07707976,72.78955832,62.26876072
59.16863208,72.95422384,62.36224271
59.19586192,73.04320326,62.37982419
59.33951544,73.23659949,62.47159091
59.42838765,73.39150943,62.62778731
59.49142367,73.53559177,62.66959691
59.65415952,73.75385935,62.81903945
59.75750429,73.85656089,62.90801887
59.83908662,74.03183962,63.06678816
59.90030017,74.15008576,63.08704974
60.03151801,74.34905660,63.21440823
60.09455403,74.46140652,63.24399657
60.15490995,74.59830617,63.36846055
60.28055317,74.79470412,63.41520154
60.25396655,74.78569897,63.46923242
59.87810892,74.34594768,63.05070755
59.31132075,73.43053173,62.52915952
58.82579331,72.60516724,61.98381218
58.57890223,72.12885935,61.68503431
58.40866209,71.87821612,61.60484563
58.39183105,71.81764580,61.59444683
58.34037307,71.77262007,61.59401801
58.49228130,71.95604631,61.71162093
58.58340480,72.12285592,61.77915952
58.63196827,72.25010720,61.86974700
58.72748714,72.31217839,61.91445111
58.73198971,72.37049743,61.97984563
58.84380360,72.52583619,62.09123070
58.89075901,72.62789451,62.14418954
59.04159520,72.84240995,62.25943396
59.13207547,72.96247856,62.38078902
59.25289451,73.15898370,62.46172813
59.37242710,73.32590051,62.57504288
59.43428388,73.45400943,62.68664237
59.56571612,73.63496998,62.75182247
59.63014580,73.75664666,62.87006861
59.77551458,73.92838765,62.96355060
59.85334477,74.06260720,63.01908233
59.92324185,74.19789880,63.11192110
60.04867067,74.41102058,63.22019726
60.07450686,74.51961835,63.26597341
60.03291166,74.50761149,63.21537307
59.60302316,73.84659091,62.75804031
59.04781304,72.97384220,62.16788165
58.59155232,72.21976844,61.79931389
58.42645798,71.83554889,61.57504288
58.34498285,71.69532590,61.53752144
58.26533019,71.58715695,61.37510720
58.31539451,71.66423671,61.47234134
58.44189537,71.81882504,61.62178388
58.59659091,71.99667667,61.77476415
58.65030017,72.10934820,61.79995712
58.62253431,72.20679674,61.79813465
58.75353774,72.33265437,61.92570755
58.83276158,72.44446827,62.01007719
58.95690395,72.63357633,62.05917667
59.07021870,72.80542453,62.24839194
59.21430103,73.02476415,62.39997856
59.28655660,73.18578473,62.45679674
59.38872213,73.31196398,62.56153516
59.54213122,73.54534734,62.72116209
59.60345197,73.66477273,62.76082762
59.72963122,73.86427959,62.89472556
59.82279160,74.01340051,62.91948971
59.94629074,74.22009005,63.08072470
60.09809177,74.41691681,63.21365780
60.14837050,74.53987993,63.29416810
60.29792024,74.82943825,63.41798885
60.33029588,74.88775729,63.45122213
60.08662093,74.54631218,63.16895369
59.57397084,73.82697256,62.73198971
59.11395798,73.06142796,62.19757719
58.91573756,72.66852487,62.05188679
58.76865352,72.45347341,61.86170669
58.78098199,72.39440395,61.91756003
58.76415094,72.41638079,61.89129503
58.89440395,72.60559605,62.05735420
58.97105489,72.76179245,62.11513722
59.00696827,72.85881218,62.21301458
59.08340480,72.96676672,62.26415094
59.10216552,73.01125643,62.29191681
59.24281732,73.18042453,62.39118782
59.35763293,73.32204117,62.52873070
59.40040738,73.49539022,62.52626501
59.56796741,73.68031732,62.72555746
59.61192110,73.79331046,62.78087479
59.76265009,74.02358491,62.94768439
59.83361921,74.19403945,63.01522298
59.93985849,74.35066467,63.13003859
60.04331046,74.50343053,63.21955403
60.12703688,74.66112779,63.32086192
60.20615352,74.83222556,63.39333190
60.28762864,74.97266295,63.48702830
60.42581475,75.20240137,63.57868782
60.51114923,75.31603774,63.69746998
60.49463979,75.38400515,63.67624357
60.27379931,75.13207547,63.46891081
59.77272727,74.36342196,62.95390223
59.45390223,73.73113208,62.59862779
59.20765437,73.34058748,62.31314322
59.13475557,73.26511578,62.29406089
59.12853774,73.22201973,62.31528731
59.16648799,73.25246569,62.37253431
59.27197684,73.41948971,62.54320326
59.36492281,73.55167238,62.63057461
59.39879931,73.63293310,62.61149228
59.44532590,73.67774443,62.65994854
59.50289451,73.75075043,62.69929245
59.55692539,73.87489280,62.79749142
59.65448113,74.01597341,62.85066467
59.76533019,74.18921527,62.98509863
59.78998714,74.28698542,63.05563894
59.90951973,74.48263293,63.07783019
60.01972556,74.62950257,63.27594340
60.08930103,74.79320326,63.33758576
60.25943396,74.98756432,63.51329331
60.29191681,75.10237993,63.51468696
60.39043739,75.24099485,63.60656089
60.47941681,75.39815609,63.75814751
60.59766295,75.57000429,63.83372642
60.61706690,75.66959691,63.87114065
60.51640223,75.53248285,63.72587907
60.05199400,74.90383791,63.30735420
59.55285163,74.06228559,62.76575901
59.25632504,73.50632504,62.49860635
59.10827616,73.18203259,62.29459691
59.03334048,73.09894940,62.25117925
59.02262007,73.04277444,62.25203688
59.06657376,73.08608491,62.29749142
59.14622642,73.22898799,62.41959691
59.20711835,73.30617496,62.46247856
59.25396655,73.36738851,62.42356346
59.24260292,73.41991852,62.45872642
59.33329760,73.52026158,62.55263722
59.41734563,73.61931818,62.64054460
59.54191681,73.78912950,62.72051887
59.62403516,73.98874357,62.78698542
59.71087050,74.10152230,62.92206261
59.78719983,74.23638508,63.03076758
59.87135506,74.38250429,63.06303602
59.99410377,74.57236278,63.19093053
60.04481132,74.67624357,63.27572899
60.15726844,74.82107633,63.33737136
60.26104202,74.96730274,63.45207976
60.32225557,75.09198113,63.51629503
60.38818611,75.26125643,63.56850343
60.47973842,75.38389794,63.72973842
60.50536021,75.51093482,63.73670669
60.33608491,75.22952401,63.52733705
59.76050600,74.39944254,62.98156089
59.21687393,73.47201973,62.39526158
58.86342196,72.84240995,62.02186964
58.69543310,72.51425815,61.93149657
58.58383362,72.25257290,61.78173242
58.56239280,72.18975129,61.74313894
58.62349914,72.26758148,61.78880789
58.73316895,72.38968696,61.90855489
58.79341767,72.49474700,61.98274014
58.82343482,72.55821184,61.96966123
58.87382075,72.62896655,62.11910377
58.92324185,72.69232419,62.12435678
59.05435249,72.86159949,62.21065609
59.19478988,73.04920669,62.36352916
59.25750429,73.16252144,62.38400515
59.42013293,73.37768010,62.56078473
59.54491852,73.55885506,62.66348628
59.64311750,73.69822041,62.81571612
59.76425815,73.88411235,62.80992710
59.85055746,73.99592624,62.90694683
59.96633791,74.17645798,63.01522298
60.06292882,74.33308319,63.11717410
60.14075901,74.50182247,63.22545026
60.26865352,74.69982847,63.33040309
60.36310034,74.83243997,63.42635077
60.45583190,75.01136364,63.50707547
60.37671527,74.92409949,63.43203259
59.89225986,74.24882075,62.96730274
59.41477273,73.38604202,62.41241424
59.07632933,72.74271012,62.04695540
58.94018010,72.50192967,61.92066895
58.87500000,72.33340480,61.88657804
58.87071184,72.33168954,61.84433962
58.98670669,72.43053173,62.00578902
59.09798456,72.60420240,62.14493997
59.20261578,72.77637221,62.21933962
59.24110206,72.83329760,62.18106775
59.27905232,72.91241424,62.21280017
59.34090909,72.98456261,62.26136364
59.46901801,73.16112779,62.42313465
59.58104631,73.34798456,62.54095197
59.69296741,73.50300172,62.61813894
59.83008148,73.69200257,62.76597341
59.90233705,73.84273156,62.85173671
60.04545455,74.04974271,62.93760720
60.11942539,74.21440823,63.02765866
60.22577187,74.38979417,63.16616638
60.33865780,74.58029588,63.29063036
60.40984134,74.68985849,63.36695969
60.56753859,74.90909091,63.48177530
60.64408233,75.04288165,63.58962264
60.72984563,75.27358491,63.74056604
60.63175386,75.15233705,63.61931818
60.28376930,74.59594768,63.21773156
59.89365352,73.94146655,62.77830189
59.58190395,73.42216981,62.49785592
59.47920240,73.28173242,62.39772727
59.43835763,73.23810034,62.39826329
59.44457547,73.27347770,62.39719125
59.56442967,73.40898370,62.53891509
59.69286021,73.59980703,62.64268868
59.77690823,73.75182247,62.76382933
59.80392367,73.80542453,62.74689108
59.84048027,73.90587479,62.84112350
59.93932247,74.03816467,62.87006861
60.00300172,74.14729846,62.93696398
60.11921098,74.35055746,63.05617496
60.23241852,74.52015437,63.19361063
60.33522727,74.70165094,63.31764580
60.41016295,74.87864494,63.40244425
60.46880360,74.99839194,63.48531304
60.58994425,75.19328902,63.55928388
60.63325472,75.32343482,63.61117067
60.75825472,75.49067324,63.81357204
60.83651372,75.67463551,63.83908662
60.93910806,75.82246998,63.98070326
61.03677101,76.02090480,64.10366638
61.01961835,76.07150515,64.11288593
60.77090480,75.74753431,63.78355489
60.30638937,75.00686106,63.32375643
59.91144940,74.34048027,62.95626072
59.70679674,74.02862350,62.75203688
59.58962264,73.79180961,62.57204117
59.54920669,73.71172813,62.57493568
59.50836192,73.72405660,62.56003431
59.63732847,73.83201115,62.70379503
59.69436106,73.97437822,62.77905232
59.75064322,74.10570326,62.86042024
59.76693825,74.13271870,62.88700686
59.75439537,74.19521870,62.87746569
59.84262436,74.30703259,62.96462264
59.91402230,74.40094340,63.04180961
60.05199400,74.61567324,63.17056175
60.12274871,74.71387221,63.25075043
60.16530875,74.85055746,63.33769297
60.28044597,75.04245283,63.45325901
60.31764580,75.15898370,63.47716552
60.38850772,75.28902230,63.50814751
60.42313465,75.41112779,63.59251715
60.53194683,75.56753859,63.75128645
60.55864065,75.70272298,63.81335763
60.67774443,75.88550600,63.93610635
60.75493139,76.03216123,63.97384220
60.79191681,76.17056175,64.05842624
60.85527444,76.28087479,64.13100343
60.61385077,75.97384220,63.84112350
60.24453259,75.25439537,63.40255146
59.72287736,74.45636792,62.86117067
59.42195540,73.89922813,62.54824185
59.29277444,73.59894940,62.41798885
59.19200257,73.41198542,62.26061321
59.17645798,73.37178388,62.32268439
59.19264580,73.39890652,62.35195111
59.30521012,73.56185678,62.44886364
59.32225557,73.58469125,62.51436535
59.35559605,73.63882933,62.54320326
59.38282590,73.66455832,62.50739708
59.41091338,73.70636792,62.56057033
59.52026158,73.84701973,62.64526158
59.56807461,73.92141938,62.71773156
59.65748285,74.13368353,62.79834906
59.75857633,74.26479417,62.88057461
59.84777015,74.41487993,62.98113208
59.94822041,74.59594768,63.07965266
60.02637221,74.72727273,63.21376501
60.13668525,74.85666810,63.30842624
60.18353345,74.97148370,63.37800172
60.32922384,75.19007290,63.48852916
60.34015866,75.29020154,63.55478130
60.41648799,75.41455832,63.64268868
60.49764151,75.60999142,63.71698113
60.56453688,75.72963122,63.84626930
60.63775729,75.87553602,63.89311750
60.60795455,75.91348628,63.88475557
60.30746141,75.45433105,63.56775300
59.83436964,74.63218268,63.04620497
59.39279588,73.83233276,62.55167238
59.17045455,73.45068611,62.35698971
59.02765866,73.19018010,62.16080617
58.98413379,73.10034305,62.17324185
58.95754717,73.05188679,62.13893654
59.02605060,73.10366638,62.20936964
59.17216981,73.27208405,62.28194683
59.13915094,73.29845626,62.33704974
59.15373070,73.32268439,62.28644940
59.18042453,73.33844340,62.33908662
59.26222127,73.43760720,62.43160377
59.30949828,73.52583619,62.49367496
59.43428388,73.69693396,62.63175386
59.54148799,73.87146226,62.72587907
59.57107633,73.94178816,62.72523585
59.65222985,74.14858491,62.82697256
59.71226415,74.24978559,62.90094340
59.83490566,74.41702401,63.04245283
59.91766724,74.55981990,63.11084906
59.94704117,74.65737564,63.11578045
60.03237564,74.79095197,63.19768439
60.15126501,74.94822041,63.34659091
60.24689108,75.09316038,63.43900086
60.30349485,75.22201973,63.51490137
60.37639365,75.34594768,63.55521012
60.22137650,75.21580189,63.45894082
59.76833190,74.48852916,63.00568182
59.32354202,73.73670669,62.47405660
59.00160806,73.17849485,62.17785163
58.88947256,72.93857204,62.06871784
58.83597770,72.82890223,62.01693825
58.81925386,72.84455403,62.06903945
58.90855489,72.94586192,62.13046741
58.95551029,73.05521012,62.22287736
59.00536021,73.14708405,62.20969125
59.02487136,73.18696398,62.26393654
59.06710978,73.23649228,62.28902230
59.14869211,73.32536449,62.36074185
59.22748714,73.44468268,62.42538593
59.30617496,73.60420240,62.55810463
59.45422384,73.81978988,62.69135935
59.48724271,73.90019297,62.71129931
59.59637650,74.09530446,62.86052744
59.71623070,74.25568182,62.94393225
59.79609777,74.38529160,62.99249571
59.86267153,74.54620497,63.15469554
59.90019297,74.67120497,63.12853774
60.02047599,74.82557890,63.26918954
60.04127358,74.90791166,63.31271441
60.18203259,75.11620926,63.49228130
60.22587907,75.21022727,63.50268010
60.34487564,75.38518439,63.66734563
60.18492710,75.21344340,63.48102487
59.66680961,74.48477702,62.96033448
59.12768010,73.55735420,62.32043310
58.72727273,72.87628645,61.96440823
58.51157804,72.54095197,61.76479417
58.37896655,72.29963551,61.63132504
58.32600772,72.20915523,61.60388079
58.37435678,72.23670669,61.70711835
58.45626072,72.35891938,61.78730703
58.57032590,72.50300172,61.89601201
58.57311321,72.53409091,61.86449400
58.59337479,72.57536449,61.86117067
58.68428388,72.71087050,61.96687393
58.72137650,72.79877787,62.05799743
58.86310034,72.97480703,62.12832333
58.96451544,73.12189108,62.31014151
59.04030875,73.25664666,62.28366209
59.16713122,73.44264580,62.40490995
59.31153516,73.61985420,62.58619211
59.38175386,73.79684820,62.64826329
59.45904803,73.90630360,62.72770154
59.55960549,74.08855060,62.82568611
59.65415952,74.23220412,62.93567753
59.80167238,74.42431389,63.07246998
59.84401801,74.53419811,63.08222556
59.92388508,74.70004288,63.21805317
60.06732419,74.89343911,63.35977702
60.10977702,74.96097770,63.39837050
60.10484563,75.00814751,63.37435678
59.76575901,74.48016724,63.02390652
59.22577187,73.61771012,62.44382504
58.77883791,72.84080189,61.90726844
58.56357204,72.40426672,61.70872642
58.47212693,72.25814751,61.67945969
58.41273585,72.13014580,61.60484563
58.47673671,72.15469554,61.67570755
58.59112350,72.32547170,61.76951115
58.76104202,72.53183962,61.92956690
58.81250000,72.63475557,61.95122213
58.85731132,72.73852916,62.01575901
58.97244854,72.86524443,62.07107633
59.08522727,72.94843482,62.18299743
59.20315180,73.13518439,62.32858062
59.29813465,73.31250000,62.45958405
59.44586192,73.51082762,62.51189966
59.53966552,73.66873928,62.60034305
59.70057890,73.87682247,62.74453259
59.77626501,74.08458405,62.92249142
59.89204545,74.24260292,62.95894082
60.01243568,74.43632075,63.12135506
60.07954545,74.57054031,63.15608919
60.22416381,74.76661664,63.31743139
60.34198113,74.94468268,63.47855918
60.41938250,75.10656089,63.49399657
60.50428816,75.29588336,63.60377358
60.61492281,75.47041166,63.72684391
60.69114494,75.63454117,63.75782590
60.61578045,75.51865352,63.69189537
60.24367496,74.94457547,63.27069039
59.77862350,74.12982419,62.76382933
59.52465695,73.70883362,62.51801029
59.40094340,73.47813036,62.38915094
59.37457118,73.42945969,62.42688679
59.41434391,73.44286021,62.49774871
59.50096484,73.57064751,62.59937822
59.59723413,73.73038165,62.59165952
59.65855489,73.83694254,62.71001286
59.70701115,73.92377787,62.74860635
59.74056604,73.96912521,62.78087479
59.81807461,74.07815180,62.85216552
59.91863208,74.21858919,62.91970412
60.02626501,74.38132504,63.06850343
60.13293310,74.53151801,63.14322470
60.17999571,74.66841767,63.19736278
60.29974271,74.87371355,63.33855060
60.40287307,75.00235849,63.47234134
60.44629074,75.17699400,63.52712264
60.56099914,75.36846055,63.59337479
60.64601201,75.50192967,63.69961407
60.72930961,75.65705403,63.82171955
60.83394082,75.81635935,63.92270583
60.91498714,75.98874357,63.99367496
60.99903516,76.13218268,64.07943825
61.03505575,76.29770583,64.21966123
60.89654803,76.17334906,64.05799743
60.56014151,75.54063036,63.67484991
60.12875214,74.87575043,63.14011578
59.83115352,74.37210549,62.92699400
59.79277444,74.23509863,62.81957547
59.76597341,74.12832333,62.80778302
59.76340051,74.13432676,62.80135077
59.87553602,74.27197684,62.91713122
59.94832762,74.40094340,62.98327616
60.01618782,74.51082762,63.04277444
60.00932676,74.55285163,63.07322041
60.05896226,74.62349914,63.10184391
60.08790738,74.67045455,63.12993139
60.18492710,74.81421527,63.26104202
60.33222556,74.99346055,63.40941252
60.35677530,75.12114065,63.47212693
60.45851201,75.29684820,63.52776587
60.54105918,75.41112779,63.62253431
60.64611921,75.59380360,63.71365780
60.68181818,75.69511149,63.79095197
60.78344768,75.85527444,63.86320755
60.85988422,76.02219125,63.95979846
60.89772727,76.12564322,64.02894511
60.98960120,76.29942110,64.14676244
61.03527015,76.40662521,64.18192539
61.14997856,76.59551887,64.28505575
61.24774871,76.76811750,64.39354631
61.20947684,76.82289880,64.45433105
60.96558748,76.54920669,64.15619640
60.52229846,75.74892796,63.65394511
60.13207547,74.96033448,63.19146655
59.83222556,74.36588765,62.81635935
59.70015009,74.08822899,62.69200257
59.62896655,73.91991852,62.65126501
59.51232847,73.79856346,62.59830617
59.58704974,73.87199828,62.61942539
59.66241424,73.98274014,62.69286021
59.75611063,74.09230274,62.83436964
59.76511578,74.09959262,62.80177959
59.79695540,74.13700686,62.87221269
59.84283877,74.18696398,62.88550600
59.85280875,74.25568182,62.88346913
59.94521870,74.41477273,63.02626501
60.02304889,74.50310892,63.09080189
60.15737564,74.69918525,63.22341338
60.19832762,74.79652659,63.26329331
60.31239280,74.97898799,63.37800172
60.37167667,75.10259434,63.44478988
60.43117496,75.18374786,63.47191252
60.51372213,75.36234991,63.61470840
60.54974271,75.45240137,63.66423671
60.68567753,75.63700686,63.79781304
60.74335334,75.76415094,63.85591767
60.79727702,75.86996141,63.89161664
60.88968696,76.05328045,63.98745712
60.88957976,76.17324185,64.04459691
60.93599914,76.27905232,64.16734563
60.66745283,75.82354202,63.77958834
60.15394511,74.98713551,63.27594340
59.68900086,74.13496998,62.75932676
59.41327187,73.59165952,62.41970412
59.26940395,73.35774014,62.32407804
59.16788165,73.14343911,62.13957976
59.14033019,73.12982419,62.16991852
59.22437822,73.20743997,62.29148799
59.33597770,73.35313036,62.38443396
59.40169383,73.45465266,62.42742281
59.40448113,73.49560463,62.49646226
59.44843482,73.52990995,62.48981561
59.50643225,73.58018868,62.54481132
59.59777015,73.70990566,62.60806175
59.71869640,73.87843053,62.78451973
59.81142796,74.03055317,62.80799743
59.90105060,74.19886364,62.93557033
59.99699828,74.35120069,62.96462264
60.08168954,74.50836192,63.09498285
60.16713122,74.61052744,63.18321184
60.23434820,74.76372213,63.26329331
60.32761578,74.93524871,63.33447684
60.38582762,75.05027873,63.45250858
60.51415094,75.22255575,63.58061750
60.57054031,75.34133791,63.66530875
60.70572470,75.52283448,63.71794597
60.78001715,75.64922813,63.85270154
60.89890652,75.79706261,63.95122213
60.87821612,75.87307033,63.97234134
60.63304031,75.57986707,63.67978130
60.10859777,74.76211407,63.18900086
59.55821184,73.88947256,62.61117067
59.29502573,73.38250429,62.33276158
59.10430961,73.13561321,62.10731132
59.03912950,73.05821184,62.08608491
59.00568182,73.01768868,62.11460120
59.09626930,73.12735849,62.25214408
59.20250858,73.29684820,62.25353774
59.21794597,73.34980703,62.28569897
59.26189966,73.44478988,62.33458405
59.28795026,73.46397942,62.37242710
59.32707976,73.53591338,62.42163379
59.47448542,73.67581475,62.59262436
59.56828902,73.81807461,62.58286878
59.64697684,73.96944683,62.80971269
59.68224700,74.09691252,62.80167238
59.82750858,74.30135077,62.95743997
59.90094340,74.47405660,63.01672384
60.01983276,74.64976415,63.14569039
60.07375643,74.76457976,63.15437393
60.19704117,74.96526587,63.35977702
60.29491852,75.09058748,63.40190823
60.34594768,75.23552744,63.49303173
60.46933962,75.40351630,63.57332762
60.56421527,75.56764580,63.65812607
60.53505575,75.63175386,63.70358062
60.23381218,75.17785163,63.35752573
59.66434391,74.28827187,62.76275729
59.25621784,73.59176672,62.42152659
59.03398370,73.23188250,62.13754288
58.98166810,73.15147942,62.18449828
58.94071612,73.05306604,62.12832333
58.99571184,73.14429674,62.21698113
59.16102058,73.32504288,62.34283877
59.21719554,73.39815609,62.39258148
59.27186964,73.52701544,62.45261578
59.30810463,73.58876501,62.49421098
59.35302316,73.66691681,62.46022727
59.43321184,73.78848628,62.59401801
59.52004717,73.94243139,62.69543310
59.64611921,74.13475557,62.75503859
59.75503859,74.29684820,62.93128216
59.84777015,74.50557461,63.05360206
59.89869211,74.62146226,63.11931818
60.02626501,74.81400086,63.24217410
60.09616209,74.94093053,63.24753431
60.23209691,75.11503002,63.42527873
60.35795455,75.28141081,63.47309177
60.40812607,75.44950686,63.63175386
60.49710549,75.62918096,63.75053602
60.54363208,75.77862350,63.82236278
60.62768010,75.99731990,63.92828045
60.67013293,76.14997856,63.99453259
60.52197684,75.94478988,63.81614494
60.02830189,75.16895369,63.27808748
59.45658233,74.21966123,62.71558748
59.10988422,73.60473842,62.32793739
58.91906089,73.30263722,62.12296312
58.85731132,73.17227702,62.10366638
58.82472127,73.10988422,62.11245712
58.87210549,73.15448113,62.14847770
59.00396655,73.31014151,62.22094768
59.03098199,73.38282590,62.27798027
59.09594768,73.47952401,62.36738851
59.12264151,73.50943396,62.39665523
59.22394940,73.63561321,62.44714837
59.28323328,73.73284734,62.51522298
59.35570326,73.85956261,62.59005146
59.51704545,74.06850343,62.73338336
59.58801458,74.19028731,62.82472127
59.70475986,74.36578045,62.95926244
59.74581904,74.55006432,63.03183962
59.84176672,74.64965695,63.10227273
59.98338336,74.85516724,63.22459262
60.06818182,75.00793310,63.34283877
60.13228988,75.12971698,63.37671527
60.24078045,75.33104631,63.53451973
60.31432247,75.46119211,63.55960549
60.43063894,75.69393225,63.75825472
60.45743997,75.80971269,63.77819468
60.53623499,75.96440823,63.88336192
60.40040738,75.82322041,63.73981561
59.93492710,75.04513293,63.17677959
59.39879931,74.14837050,62.63186106
59.05521012,73.47030446,62.25096484
58.88550600,73.17324185,62.09584048
58.79234563,73.00203688,61.96451544
58.77090480,72.95743997,61.96022727
58.88722127,73.08919383,62.11963979
58.98659949,73.21258576,62.13775729
59.09058748,73.33930103,62.24174528
59.11331475,73.39526158,62.31421527
59.13711407,73.45915523,62.36781732
59.24056604,73.53752144,62.46848199
59.30424528,73.62371355,62.49785592
59.45143654,73.79920669,62.67034734
59.51029160,73.94318182,62.71333619
59.63304031,74.10774014,62.75911235
59.74356775,74.27637221,62.86578045
59.86052744,74.44886364,63.00289451
59.98038165,74.61653087,63.11738851
60.01082762,74.77283448,63.14011578
60.10559605,74.95486707,63.21451544
60.21204974,75.08683533,63.32654374
60.31539451,75.24120926,63.50536021
60.40276587,75.37167667,63.54706261
60.50053602,75.54320326,63.68792882
60.53033877,75.66348628,63.69200257
60.36545883,75.43621355,63.50825472
59.93717839,74.76650943,63.03623499
59.47277015,74.00450257,62.59755575
59.25578902,73.58018868,62.35313036
59.19864923,73.41262864,62.31464408
59.13679245,73.34884220,62.26929674
59.20090051,73.40759005,62.32054031
59.31282161,73.56689537,62.42452830
59.44071612,73.73509863,62.54577616
59.49463979,73.80488851,62.58083190
59.51200686,73.87607204,62.60591767
59.55145798,73.92602916,62.62585763
59.60720412,74.05253002,62.73949400
59.74238851,74.18085334,62.80542453
59.78666381,74.31796741,62.88807890
59.93889365,74.52079760,63.00000000
59.98499142,74.64837050,63.06968268
60.10731132,74.85366638,63.25546741
60.20497427,75.02787307,63.36106346
60.28409091,75.14451115,63.39343911
60.41991852,75.34337479,63.47609348
60.45904803,75.43717839,63.54438250
60.58297599,75.61449400,63.73692110
60.59509005,75.74731990,63.77755146
60.68889365,75.95518868,63.83769297
60.60902659,75.94586192,63.79749142
60.34734134,75.47469983,63.52122642
59.81099914,74.63218268,62.84251715
59.43792882,73.97973842,62.51854631
59.24721269,73.64794168,62.32632933
59.15458834,73.49571184,62.29974271
59.10656089,73.41616638,62.24228130
59.11653087,73.45701115,62.33715695
59.23123928,73.62768010,62.38132504
59.35806175,73.77379931,62.54138079
59.35184391,73.79502573,62.52637221
59.36996141,73.87575043,62.55949828
59.39654803,73.91777444,62.57257719
59.49260292,74.05842624,62.66455832
59.54234563,74.18814322,62.73274014
59.65158662,74.29373928,62.86042024
59.76211407,74.47609348,62.94564751
59.84037307,74.63025300,63.00954117
59.91584477,74.77669383,63.10688250
60.03023156,74.94939966,63.25214408
60.07429245,75.06292882,63.24110206
60.18385506,75.25503859,63.40748285
60.19178816,75.36288593,63.47437822
60.27262007,75.56014151,63.53076758
60.35237993,75.70636792,63.66198542
60.39944254,75.83104631,63.73391938
60.48767153,75.98295455,63.76854631
60.48927959,76.05574614,63.86706690
60.21858919,75.68235420,63.50117925
59.70229417,74.84058748,63.01811750
59.25460978,74.03012436,62.41627358
58.97662950,73.55510292,62.18181818
58.83897942,73.31067753,61.97427101
58.78323328,73.16680961,61.93331904
58.74892796,73.14858491,61.99228130
58.82665094,73.23466981,62.09058748
58.94082333,73.41573756,62.22555746
58.95551029,73.46022727,62.26425815
58.99699828,73.50428816,62.23370497
59.00911235,73.55799743,62.28484134
59.09037307,73.67978130,62.34637650
59.14665523,73.74678388,62.41766724
59.27004717,73.96665952,62.51340051
59.36385077,74.11149228,62.63379074
59.44243139,74.23081046,62.73188250
59.57236278,74.43256861,62.89354631
59.62971698,74.55188679,62.85506003
59.72695111,74.75632504,62.99024443
59.80703259,74.88765009,63.07354202
59.92077616,75.08136792,63.23209691
59.95508148,75.19414666,63.19886364
60.02819468,75.33072470,63.34358919
60.16927530,75.55563894,63.47545026
60.24796312,75.70679674,63.62789451
60.30370926,75.89075901,63.70272298
60.33115352,75.99474700,63.74967839
60.18771441,75.80842624,63.60774014
59.72019726,75.07289880,63.11234991
59.27744425,74.19146655,62.52401372
58.98820755,73.65415952,62.16959691
58.82793739,73.36095626,62.06335763
58.77401372,73.28623499,62.01350772
58.68160377,73.20433105,61.95068611
58.80413808,73.33587050,62.06635935
58.89954974,73.46365780,62.17613636
58.97630789,73.55585334,62.24903516
58.98745712,73.60581046,62.27347770
59.01168525,73.63882933,62.32214837
59.05027873,73.72930961,62.33715695
59.12114065,73.79738422,62.38228988
59.21451544,73.94243139,62.47201973
59.33297599,74.08662093,62.62885935
59.39075901,74.23295455,62.66820326
59.50932676,74.40876930,62.76983276
59.51940395,74.52154803,62.87167667
59.64536878,74.67645798,62.94382504
59.71901801,74.82322041,62.99924957
59.77776587,74.97652230,63.18492710
59.82139794,75.07375643,63.19468268
59.90662521,75.25546741,63.28419811
60.02497856,75.42570755,63.37039022
60.05478130,75.53827187,63.43385506
60.10870497,75.68546312,63.57054031
59.95743997,75.53291166,63.42013293
59.55767581,74.78816467,62.90587479
59.12017581,74.01811750,62.39333190
58.84380360,73.51554460,62.04363208
58.74517581,73.29856346,62.04384648
58.68814322,73.21816038,61.97137650
58.69028731,73.24453259,61.99817753
58.82557890,73.41798885,62.11310034
58.89879931,73.52015437,62.19210978
58.97448542,73.63164666,62.28108919
58.92099057,73.66563036,62.25996998
58.94275300,73.66766724,62.25343053
59.02787307,73.75536021,62.36470840
59.12231990,73.86288593,62.45122213
59.19168096,74.04481132,62.56903945
59.28473413,74.17560034,62.65415952
59.34369640,74.30831904,62.74120926
59.47673671,74.50889794,62.81078473
59.56164237,74.65062178,62.95422384
59.66509434,74.82804460,63.02701544
59.71451544,74.93128216,63.10473842
59.79963551,75.13046741,63.22094768
59.81732419,75.23734991,63.26715266
59.90062178,75.38368353,63.33930103
59.99764151,75.56646655,63.44618353
60.02337050,75.67795883,63.49206690
60.00460978,75.69178816,63.51918954
59.59037307,75.10538165,63.08865780
59.09498285,74.20711835,62.46976844
58.70958405,73.43642796,62.02776587
58.46515866,72.96387221,61.80092196
58.37092624,72.79331046,61.67495712
58.25771870,72.63078902,61.57675815
58.29727702,72.67056175,61.64161664
58.37660806,72.79170240,61.78205403
58.45411664,72.91981132,61.85227273
58.54202401,73.02337050,61.91530875
58.56721698,73.05049314,61.85516724
58.59401801,73.11996141,61.92913808
58.64461835,73.19864923,62.00761149
58.78773585,73.34691252,62.17903087
58.82139794,73.49421098,62.15737564
58.91691681,73.65019297,62.29170240
59.05467410,73.82268439,62.41445111
59.12360635,73.96430103,62.49924957
59.26629503,74.13636364,62.64086621
59.30960549,74.24056604,62.66144940
59.43685678,74.42699400,62.80070755
59.46430103,74.57600772,62.91670240
59.49153087,74.62231990,62.89526158
59.62982419,74.84937822,63.08115352
59.67345626,74.97941681,63.12671527
59.78430532,75.16080617,63.26843911
59.82311321,75.28559177,63.25793310
59.69661235,75.15180103,63.11706690
59.19939966,74.36277873,62.55960549
58.61771012,73.33683533,61.97491424
58.28387650,72.70304460,61.59927101
58.06732419,72.35870497,61.42216981
57.98756432,72.17045455,61.27765866
57.95358062,72.10216552,61.28955832
57.98702830,72.15062178,61.36288593
58.15962693,72.35623928,61.54191681
58.23949400,72.46826758,61.56582333
58.27915952,72.54781304,61.60956261
58.33490566,72.65866209,61.69275300
58.42742281,72.76597341,61.76211407
58.52079760,72.88850772,61.81153516
58.67978130,73.06721698,61.99689108
58.80360206,73.27615780,62.06560892
58.90748285,73.46580189,62.23252573
59.05864065,73.64440395,62.28719983
59.10527444,73.79995712,62.41638079
59.25439537,73.99238851,62.52776587
59.37725129,74.15276587,62.67099057
59.48006003,74.33211835,62.76522298
59.60934820,74.52358491,62.93589194
59.64022298,74.63572041,62.90759005
59.76951115,74.84176672,63.08619211
59.86181389,74.97480703,63.15726844
59.96687393,75.18321184,63.25418096
59.98606346,75.34455403,63.35270154
59.88464837,75.14493997,63.21569468
59.45947684,74.43803602,62.68953688
58.91348628,73.57171955,62.16713122
58.64493997,73.06174957,61.80188679
58.54459691,72.80896226,61.70433105
58.47662950,72.74571184,61.69253859
58.50728988,72.75728988,61.74828473
58.58458405,72.85066467,61.76983276
58.76554460,73.08051029,62.00225129
58.76961835,73.16970412,61.96087050
58.83533448,73.26543739,62.10806175
58.87285592,73.34862779,62.10934820
58.96054889,73.44318182,62.19961407
59.06282161,73.58855060,62.27165523
59.15694683,73.76693825,62.41680961
59.26918954,73.94071612,62.50418096
59.35902659,74.08008148,62.61695969
59.47255575,74.29395369,62.70904803
59.55885506,74.41670240,62.82643654
59.64183105,74.56614494,62.88261149
59.75128645,74.74035163,63.01350772
59.78430532,74.85698971,63.03280446
59.90437393,75.02765866,63.16723842
59.98520583,75.21119211,63.25964837
60.09251715,75.39847770,63.41970412
60.14826329,75.56786021,63.42978130
60.15180103,75.56646655,63.46740995
59.85602487,75.13904374,63.10430961
59.40319468,74.32986707,62.60816895
59.03430532,73.70604631,62.23477702
58.84401801,73.33243997,62.04298885
58.80649657,73.26447256,62.02154803
58.80295883,73.29009434,62.05317324
58.86996141,73.38604202,62.09037307
59.01436535,73.58083190,62.26050600
59.08136792,73.68514151,62.33072470
59.10355918,73.74785592,62.34476844
59.11685249,73.79138079,62.35548885
59.17935249,73.85709691,62.41948971
59.27530017,74.00450257,62.54030875
59.32472127,74.11202830,62.57214837
59.45754717,74.33018868,62.69725557
59.52422813,74.43867925,62.79245283
59.63915094,74.63036021,62.89686964
59.71869640,74.76179245,62.98627787
59.78891509,74.91863208,63.07515009
59.89944254,75.08447684,63.19918525
59.94114494,75.19586192,63.26575901
60.01039880,75.33822899,63.33887221
60.04877787,75.46794597,63.36910377
60.15255146,75.65383791,63.51425815
60.24346055,75.80049314,63.65490995
60.24603345,75.92249142,63.61910377
60.15287307,75.77401372,63.49957118
59.66284305,75.02798027,63.02669383
59.21933962,74.14558319,62.42045455
58.82557890,73.43814322,62.11524443
58.66981132,73.09198113,61.85613208
58.53848628,72.90533877,61.74689108
58.47073328,72.81121355,61.68642796
58.51972556,72.86663808,61.74035163
58.58436964,72.95829760,61.82150515
58.69039451,73.11985420,61.97727273
58.72566467,73.13732847,61.94629074
58.75300172,73.20068611,62.01715266
58.82804460,73.28623499,62.05939108
58.85859777,73.35280875,62.11074185
58.98177530,73.51650943,62.19832762
59.03837907,73.66723842,62.30960549
59.16155660,73.80285163,62.39483276
59.23338336,73.94864923,62.49324614
59.36867496,74.12918096,62.59487564
59.42635077,74.25804031,62.68985849
59.49142367,74.37071184,62.73949400
59.59176672,74.53280446,62.83383362
59.67024014,74.67002573,62.85141509
59.76007719,74.81003431,62.99849914
59.82193396,74.92978130,63.07986707
59.90437393,75.06925386,63.21376501
59.95025729,75.22277015,63.25385935
60.06989708,75.41402230,63.37885935
59.95497427,75.30381647,63.25986278
59.50032161,74.54534734,62.74646226
58.90694683,73.58855060,62.11063465
58.54256003,72.90469554,61.61996141
58.35377358,72.56046312,61.46440823
58.27969554,72.34594768,61.44993568
58.22973842,72.29749142,61.41970412
58.28130360,72.34048027,61.44468268
58.37510720,72.48295455,61.56828902
58.53419811,72.67870926,61.74453259
58.55853345,72.73970840,61.76114923
58.59133791,72.78752144,61.79759863
58.68589194,72.91402230,61.87864494
58.78569897,73.03891509,61.99110206
58.87692967,73.15994854,62.03430532
58.99721269,73.32868782,62.17302744
59.12457118,73.52615780,62.25171527
59.20561750,73.67409949,62.38550600
59.31700257,73.86374357,62.46344340
59.43128216,74.05370926,62.60366638
59.51843911,74.22555746,62.66595197
59.62081904,74.34959262,62.79620497
59.67903087,74.46569468,62.84755575
59.79073756,74.68374786,62.94039451
59.89386792,74.81989708,63.05403087
59.99099485,74.98670669,63.15866209
60.09498285,75.17431389,63.24828473
60.09358919,75.31057033,63.37317753
60.12928816,75.35849057,63.31089194
59.81357204,74.86159949,62.98938679
59.30424528,74.03259005,62.47234134
58.94489708,73.35398799,62.05274443
58.70175815,73.01650943,61.82139794
58.60302316,72.88003859,61.81678816
58.60849057,72.85527444,61.78987993
58.68106775,72.96751715,61.84144511
58.79577616,73.15105060,61.98552744
58.86224271,73.26297170,62.05906947
58.93310463,73.35806175,62.11020583
58.93406947,73.36717410,62.15469554
59.00428816,73.46912521,62.18889365
59.04588336,73.56153516,62.23713551
59.18235420,73.70508148,62.38925815
59.30210120,73.89794168,62.47727273
59.34616209,74.01147084,62.58930103
59.47126930,74.19746998,62.68203259
59.52540738,74.33072470,62.72673671
59.68213979,74.58651372,62.84659091
59.75546741,74.72309177,62.96580189
59.80220840,74.82493568,63.06550172
59.89751286,74.99721269,63.14065180
59.97652230,75.14268868,63.20336621
60.07525729,75.35227273,63.30510292
60.10838336,75.48831475,63.39697684
60.15180103,75.63057461,63.46526587
60.05456690,75.46580189,63.35731132
59.61545883,74.73574185,62.81550172
59.13400515,73.95454545,62.33855060
58.80799743,73.41262864,62.00975557
58.68653516,73.18846484,61.88679245
58.64515437,73.14493997,61.85120069
58.61695969,73.07364923,61.84916381
58.69939966,73.22277015,61.93203259
58.82107633,73.39611921,62.11417238
58.85849057,73.51157804,62.16380789
58.87993139,73.55874786,62.18181818
58.92560034,73.63464837,62.25536021
59.01457976,73.75407376,62.35849057
59.06282161,73.81046312,62.40544597
59.19414666,73.99174528,62.56528731
59.25986278,74.13807890,62.61792453
59.37746569,74.32450686,62.69478988
59.48917238,74.54620497,62.76725986
59.54749142,74.64483276,62.88175386
59.68063894,74.83994425,63.01554460
59.70186535,74.96215695,63.07900943
59.80638937,75.14472556,63.18353345
59.85420240,75.30338765,63.31089194
59.91155660,75.42506432,63.33908662
60.05606775,75.64183105,63.46730274
60.03441252,75.72244854,63.51318611
60.17785163,75.94972127,63.67163379
60.21022727,76.05306604,63.67484991
59.96698113,75.79631218,63.47126930
59.46880360,75.03912950,62.92163379
59.03055317,74.08179674,62.37939537
58.73241852,73.49699828,61.96333619
58.53430532,73.15244425,61.82568611
58.47148370,73.03259005,61.74721269
58.44050172,72.95894082,61.75546741
58.49978559,73.01350772,61.75493139
58.61749571,73.19339623,61.95883362
58.71730274,73.28334048,62.02262007
58.78226844,73.40490995,62.08201115
58.79534734,73.42292024,62.07772298
58.80939108,73.50686106,62.07933105
58.97963122,73.66723842,62.22105489
59.05531732,73.81453688,62.35527444
59.20240137,74.00192967,62.45004288
59.26265009,74.13271870,62.53280446
59.41091338,74.34637650,62.62489280
59.51114923,74.50300172,62.81968268
59.58361921,74.68374786,62.89708405
59.67656518,74.82214837,62.99281732
59.73927959,74.99013722,63.08083190
59.85870497,75.18674957,63.20711835
59.94371784,75.33136792,63.30778302
60.03795026,75.51157804,63.41466552
60.14590480,75.73145369,63.53741424
60.20218696,75.82868782,63.58812178
60.31764580,76.06185678,63.67677959
60.36942539,76.21891081,63.84476844
60.29159520,76.15201544,63.69039451
59.88936535,75.53151801,63.27144082
59.53805746,74.66777444,62.70057890
59.25085763,74.10398799,62.41059177
59.09240995,73.79867067,62.27572899
59.03666381,73.71569468,62.23777873
59.03977273,73.67720840,62.27626501
59.12596484,73.78312607,62.31185678
59.25075043,73.95593911,62.39611921
59.27798027,74.05070755,62.49603345
59.37500000,74.16295026,62.49292453
59.36803173,74.20593911,62.53634220
59.45979846,74.31271441,62.61653087
59.51511578,74.39611921,62.71515866
59.60688250,74.55263722,62.72909520
59.71548027,74.74335334,62.87135506
59.80156518,74.89054460,63.03205403
59.88507719,75.07204117,63.10248714
59.99346055,75.21472985,63.20015009
60.10334477,75.41616638,63.36342196
60.13357633,75.56560892,63.42345626
60.23863636,75.76908233,63.50686106
60.29234563,75.92549314,63.56142796
60.38936535,76.04030875,63.61620926
60.49817753,76.25096484,63.81228559
60.54931389,76.38657804,63.86685249
60.62671527,76.59991424,63.94789880
60.71312178,76.77701544,64.08426244
60.61738851,76.80649657,64.04792024
60.37103345,76.30413808,63.73252573
59.98123928,75.57793739,63.22180532
59.75653945,74.97287736,63.00503859
59.62081904,74.74453259,62.78998714
59.63304031,74.70358062,62.81914666
59.66498714,74.73659949,62.85966981
59.70743997,74.81850343,62.95743997
59.83522727,75.00954117,63.00782590
59.87071184,75.10570326,63.08554889
59.89483276,75.18685678,63.11760292
59.90673242,75.25343053,63.17667238
59.95926244,75.31861063,63.21548027
60.02540738,75.41927530,63.25782590
60.08769297,75.58940823,63.34090909
60.18664237,75.73981561,63.49817753
60.25643225,75.90544597,63.53945111
60.31121355,76.07643654,63.64569039
60.40973413,76.22105489,63.72448542
60.49882075,76.36631647,63.85495283
60.55006432,76.53334048,63.91777444
60.60045026,76.69993568,64.00396655
60.69146655,76.86299314,64.11599485
60.78173242,76.99892796,64.20668954
60.85538165,77.13132504,64.32472127
60.96312178,77.33233276,64.49228130
60.96858919,77.41391509,64.44307461
60.80017153,77.28537736,64.29909949
60.42002573,76.59069468,63.82075472
60.03848628,75.85237993,63.42442110
59.84208834,75.32450686,63.07515009
59.73123928,75.10559605,63.01747427
59.72073328,75.01147084,63.00160806
59.67388508,74.93889365,62.98391938
59.73895798,75.02605060,63.01618782
59.85098628,75.16723842,63.10913379
59.86503002,75.24217410,63.18857204
59.90919811,75.28012436,63.23316895
59.88668525,75.32129074,63.21044168
59.96580189,75.38518439,63.29877787
59.98799314,75.47555746,63.34562607
60.10366638,75.65598199,63.47116209
60.18707118,75.76147084,63.52219125
60.30188679,75.93610635,63.64794168
60.38968696,76.07129074,63.73681389
60.40330189,76.21247856,63.76286449
60.50750429,76.33490566,63.84391081
60.52873070,76.47684391,63.92259863
60.58844340,76.63861492,63.99045883
60.70583190,76.80638937,64.15308748
60.77658662,76.89644082,64.21698113
60.83822899,77.01704545,64.30713979
60.88882933,77.18063894,64.37682247
61.02036878,77.37585763,64.51243568
61.04599057,77.44307461,64.54663379
60.89386792,77.26157804,64.35849057
60.50525300,76.53505575,63.89676244
60.08254717,75.64150943,63.45626072
59.84005146,75.01865352,63.05574614
59.71022727,74.65533877,62.84251715
59.65866209,74.49892796,62.80553173
59.62714408,74.43503431,62.76779588
59.63046741,74.44736278,62.80906947
59.69832762,74.56432247,62.90480274
59.73123928,74.61202830,62.92013293
59.77776587,74.64397513,62.93578473
59.80124357,74.69189537,62.95132933
59.83061750,74.72555746,62.97298456
59.93267581,74.88014580,63.12221269
60.00911235,74.96301458,63.16391509
60.13089623,75.11545883,63.32364923
60.23992281,75.31067753,63.43203259
60.26790309,75.40769726,63.45186535
60.40501715,75.63078902,63.62028302
60.46912521,75.74228130,63.64837050
60.54609777,75.90244425,63.75621784
60.62446398,76.05092196,63.87124786
60.74421098,76.25171527,64.00192967
60.79502573,76.38293310,64.05081475
60.83619211,76.55767581,64.13936535
60.99667667,76.71258576,64.24131647
61.07975986,76.84498285,64.33726415
61.18374786,77.05831904,64.42131218
61.16037736,77.15244425,64.46054889
61.00332333,76.90705403,64.24088765
60.58908662,76.08265437,63.80692539
60.21944683,75.28312607,63.28634220
60.01318611,74.79213122,62.99003002
59.91027015,74.55949828,62.88132504
59.88346913,74.50804031,62.90469554
59.86953259,74.49153087,62.90855489
59.94457547,74.58051029,63.02412093
60.02454974,74.77905232,63.09080189
60.04202401,74.79309605,63.16809605
60.04524014,74.82611492,63.16144940
60.07011149,74.87285592,63.19554031
60.16048456,74.98295455,63.22459262
60.22995283,75.11310034,63.33093911
60.28130360,75.19832762,63.39301029
60.41348628,75.35516724,63.57622213
60.44146655,75.47813036,63.54352487
60.54684820,75.69157376,63.66884648
60.56507290,75.79534734,63.70443825
60.64290309,75.92913808,63.83501286
60.71944683,76.12682247,63.89311750
60.76479417,76.24292453,64.02079760
60.86835334,76.41273585,64.09991424
60.92227702,76.51404374,64.15726844
61.01318611,76.68557033,64.20786878
61.03923671,76.82632933,64.35034305
61.06914666,76.93535592,64.37789451
60.89161664,76.63218268,64.15190823
60.46012007,75.89086621,63.63293310
60.22716552,75.20508148,63.27240566
60.03087479,74.81367925,63.02422813
59.98177530,74.66873928,63.07761578
59.96698113,74.66616638,63.06432247
59.98820755,74.72834477,63.09519726
60.09862779,74.90287307,63.21719554
60.11460120,74.98831475,63.23638508
60.17828045,75.08694254,63.27519297
60.18910806,75.10977702,63.31432247
60.20947684,75.16595197,63.33533448
60.28484134,75.27133362,63.40405232
60.31861063,75.36256432,63.41981132
60.44296741,75.55253002,63.65737564
60.48316895,75.65812607,63.63282590
60.53226844,75.80563894,63.78226844
60.62028302,75.94039451,63.82740137
60.70347341,76.12242710,63.95969125
60.78687822,76.26565180,64.02079760
60.77787307,76.37049743,64.10077187
60.86631647,76.52047599,64.10023585
60.94200257,76.70572470,64.26768868
60.99667667,76.82879503,64.28955832
61.06893225,76.95679674,64.39247427
61.07311321,77.03044597,64.42581475
61.02454974,76.98895798,64.39826329
60.65126501,76.34680532,63.94478988
60.21880360,75.45486707,63.40276587
59.91927530,74.75653945,62.97287736
59.64472556,74.41402230,62.85377358
59.59873499,74.28462693,62.75439537
59.57011149,74.16187822,62.73091767
59.59358919,74.20229417,62.69393225
59.69339623,74.33147513,62.85656089
59.72780875,74.41262864,62.87639365
59.78366209,74.47427101,62.93889365
59.76843911,74.49978559,62.92174099
59.84980703,74.56571612,63.03269726
59.88529160,74.64579760,63.00214408
59.94060892,74.76736707,63.11813894
60.04663379,74.89054460,63.21280017
60.11674528,75.04684820,63.29620497
60.19050172,75.20872642,63.38475557
60.20743997,75.33651372,63.46773156
60.31539451,75.52208405,63.56689537
60.41370069,75.65576758,63.61610206
60.43192539,75.75739708,63.70379503
60.53323328,75.93803602,63.84155232
60.56903945,76.04352487,63.83426244
60.66166381,76.20197256,63.97834477
60.70325901,76.30703259,64.00578902
60.74892796,76.47341338,64.09669811
60.77701544,76.54867067,64.11063465
60.52808748,76.25214408,63.86320755
60.10109348,75.44864923,63.37575043
59.64033019,74.52948113,62.81464408
59.33072470,73.96044168,62.48381218
59.22716552,73.63346913,62.28762864
59.13196827,73.54749142,62.24667667
59.12628645,73.51286449,62.26350772
59.14526158,73.55778302,62.23767153
59.26854631,73.71494425,62.42549314
59.30499571,73.78183962,62.47094768
59.38539880,73.88218268,62.56035592
59.42034734,73.93964408,62.61245712
59.47277015,74.02358491,62.64408233
59.56678816,74.17763722,62.71623070
59.62521441,74.28945111,62.79116638
59.77605060,74.48209691,62.94736278
59.86245712,74.60495283,63.00096484
59.94618353,74.81453688,63.12864494
60.04491852,74.98488422,63.19564751
60.13496998,75.14011578,63.31957547
60.20776158,75.32654374,63.40094340
60.27401372,75.45561750,63.47384220
60.35934820,75.63507719,63.60463122
60.42635077,75.74067324,63.65748285
60.53066038,75.92538593,63.77422813
60.59659091,76.06378645,63.83008148
60.69414666,76.24689108,63.99024443
60.74528302,76.37735849,64.01586621
60.57547170,76.20283019,63.86578045
60.23713551,75.47791595,63.39043739
59.81132075,74.68696398,62.94232419
59.59701973,74.21387221,62.64118782
59.49217410,74.04834906,62.57214837
59.46794597,73.99410377,62.53312607
59.49839194,74.01211407,62.58201115
59.56539451,74.10999142,62.67174099
59.68717839,74.31689537,62.79931389
59.70819039,74.39193825,62.84348199
59.67903087,74.46826758,62.83812178
59.74603345,74.49517581,62.85388079
59.80306604,74.54577616,62.93492710
59.89258148,74.70368782,63.03430532
59.93460549,74.77637221,63.06174957
60.03880789,74.99013722,63.19403945
60.09841338,75.10570326,63.26993997
60.19361063,75.29952830,63.41209262
60.30274443,75.47298456,63.48113208
60.33190395,75.56603774,63.52015437
60.45561750,75.70175815,63.69661235
60.46987564,75.85430961,63.68707118
60.54470412,76.03076758,63.75460978
60.64172384,76.16530875,63.87950257
60.71826758,76.32997427,63.95990566
60.79502573,76.44939966,64.00857633
60.68492710,76.37339194,63.93599914
60.32879503,75.77626501,63.49560463
59.98767153,74.99367496,63.12424957
59.71280017,74.51983276,62.81185678
59.67388508,74.37435678,62.71826758
59.63604202,74.34208834,62.70272298
59.64140223,74.37231990,62.78634220
59.68621355,74.46901801,62.82472127
59.83233276,74.68460549,63.00278731
59.86460120,74.73552744,63.00010720
59.82064751,74.77069039,63.02819468
59.89440395,74.85902659,63.09294597
59.89611921,74.91219983,63.09037307
59.97319897,75.06861063,63.18181818
60.06453688,75.17002573,63.27722985
60.11653087,75.32986707,63.25032161
60.23788593,75.50225129,63.44714837
60.26307890,75.62457118,63.46805317
60.33040309,75.77315609,63.60248714
60.40415952,75.86106346,63.60420240
60.49067324,76.02133362,63.82858062
60.56464408,76.13711407,63.85023585
60.56593053,76.27240566,63.87810892
60.67795883,76.41295026,63.94875643
60.70090051,76.52873070,64.04052316
60.77004717,76.68621355,64.03162521
60.61728130,76.59562607,64.00235849
60.27808748,76.00150086,63.56196398
59.89987136,75.13936535,63.12500000
59.58126072,74.44725557,62.67045455
59.32761578,74.09391081,62.47641509
59.25192967,73.86556604,62.36685249
59.22534305,73.81303602,62.36406518
59.23627787,73.84626930,62.37778731
59.29020154,73.92677959,62.47244854
59.32836621,74.03955832,62.49560463
59.33447684,74.05617496,62.55060034
59.34101630,74.10259434,62.53870069
59.37049743,74.12671527,62.57268439
59.44060892,74.21140652,62.60891938
59.51307890,74.33297599,62.74142367
59.52154803,74.44178816,62.72866638
59.60774014,74.59723413,62.87060463
59.65233705,74.67677959,62.93578473
59.74003002,74.84509005,63.03312607
59.79180961,74.93803602,63.06668096
59.81099914,75.08587050,63.13754288
59.89247427,75.21387221,63.17249142
59.89322470,75.28859348,63.25728988
60.02594340,75.43546312,63.32439966
60.07482847,75.55231561,63.39794168
60.14676244,75.70036449,63.48316895
60.17956690,75.84037307,63.58715695
60.14172384,75.82568611,63.53430532
59.89686964,75.34927101,63.19210978
59.39354631,74.41541595,62.60302316
59.00171527,73.67774443,62.14022298
58.80521012,73.24967839,61.89333190
58.65726844,73.05628216,61.80521012
58.60077187,72.96033448,61.73713551
58.59637650,72.91563036,61.72116209
58.69618353,73.04759863,61.81710978
58.75439537,73.15876930,61.92527873
58.80553173,73.22084048,61.97212693
58.80971269,73.27905232,61.98231132
58.83126072,73.32182676,61.99078045
58.88775729,73.40598199,62.08029588
58.93514151,73.50289451,62.12789451
59.10023585,73.70186535,62.28269726
59.14301029,73.78087479,62.35227273
59.26554460,73.97802316,62.44050172
59.30638937,74.10677530,62.54116638
59.40651801,74.25986278,62.63700686
59.47051887,74.39633362,62.72566467
59.50804031,74.47995283,62.71280017
59.61974700,74.67463551,62.85130789
59.62285592,74.76586621,62.93439108
59.68878645,74.94371784,62.96987564
59.77412093,75.10388079,63.11052744
59.85570326,75.21162093,63.17174099
59.89976415,75.34101630,63.26147084
59.81518010,75.27379931,63.17024014
59.49474700,74.67334906,62.71408662
59.05671098,73.82793739,62.18557033
58.79781304,73.30102916,61.91723842
58.60441681,73.07632933,61.76093482
58.54781304,72.92967410,61.70475986
58.52101201,72.91916810,61.72491424
58.55917667,72.98006003,61.74614065
58.67302744,73.16059177,61.86406518
58.67806604,73.23295455,61.90490995
58.68128216,73.25975557,61.91198542
58.68021012,73.27197684,61.93149657
58.70958405,73.29513293,61.91927530
58.76736707,73.38743568,62.01415094
58.81400086,73.48445540,62.03183962
58.92088336,73.62950257,62.20497427
59.03248285,73.80456690,62.27905232
59.07236278,73.88261149,62.34852058
59.14204545,74.01254288,62.36846055
59.18707118,74.09080189,62.47373499
59.21333619,74.21976844,62.51779588
59.32568611,74.37478559,62.64322470
59.39590480,74.52069039,62.69929245
59.49882075,74.69907804,62.84916381
59.52101201,74.78151801,62.85891938
59.58887221,74.94950686,62.94135935
59.46891081,74.83812178,62.85484563
59.04942110,74.17549314,62.40319468
58.67592196,73.41777444,61.89890652
58.45433105,72.98542024,61.64665523
58.33254717,72.75171527,61.53023156
58.30317324,72.69575472,61.56710978
58.29148799,72.68814322,61.52240566
58.35130789,72.76297170,61.59787736
58.48917238,72.93964408,61.77347770
58.53055317,73.06721698,61.80799743
58.57579331,73.15641081,61.84123070
58.60345197,73.17828045,61.89654803
58.67592196,73.27219125,61.95551029
58.79824185,73.44275300,62.11149228
58.83158233,73.52798027,62.09594768
58.90683962,73.66691681,62.20636792
59.01715266,73.88700686,62.34498285
59.14719125,74.08179674,62.47888079
59.21194254,74.24367496,62.53033877
59.29406089,74.35280875,62.64033019
59.36556604,74.52229846,62.70647513
59.41348628,74.62060463,62.81035592
59.52680103,74.80060034,62.88014580
59.58640652,74.91445111,62.96526587
59.64311750,75.12403516,63.02905232
59.72148370,75.26072041,63.14172384
59.77262007,75.35538165,63.22759434
59.57643654,75.11159949,63.03848628
59.10870497,74.32397084,62.45647513
58.72126930,73.53752144,62.02401372
58.47051887,72.99603345,61.67249142
58.34283877,72.77572899,61.54138079
58.22287736,72.62596484,61.49453259
58.23188250,72.63539880,61.46280017
58.33018868,72.76072041,61.58619211
58.39236707,72.85441681,61.68610635
58.48992281,72.99099485,61.81518010
58.48917238,73.01404374,61.82493568
58.51114923,73.03559177,61.81067753
58.59487564,73.13604202,61.87146226
58.63872213,73.22277015,61.85934820
58.78419811,73.40855489,62.09594768
58.82536449,73.52476415,62.06893225
58.96730274,73.70872642,62.24281732
59.06518010,73.86771012,62.37285592
59.11170669,73.99914237,62.42688679
59.23059605,74.23081046,62.51447256
59.27830189,74.28923671,62.61256432
59.36299314,74.47662950,62.67324185
59.43042453,74.62424957,62.75932676
59.54052316,74.75686106,62.88379074
59.63968696,74.95358062,63.00139365
59.64097341,75.02262007,62.98402659
59.58897942,75.00900515,62.94982847
59.21526587,74.31539451,62.52722985
58.82504288,73.53323328,62.01500858
58.53066038,72.95390223,61.63143225
58.41123499,72.71783877,61.54566895
58.35441681,72.64301029,61.47534305
58.33919383,72.61813894,61.50042882
58.48038165,72.76490137,61.71365780
58.55617496,72.91230703,61.76608062
58.60602487,72.99045883,61.77733705
58.60784734,73.02165523,61.74978559
58.61728130,73.04459691,61.80746141
58.73906518,73.19103774,61.90973413
58.80006432,73.28505575,61.96451544
58.95572470,73.47780875,62.08501286
59.03334048,73.62167667,62.20722556
59.14740566,73.80713979,62.33458405
59.22952401,73.92292024,62.39890652
59.31753859,74.08512007,62.51500858
59.45132933,74.26136364,62.61663808
59.51340051,74.39418954,62.67656518
59.58715695,74.54191681,62.77733705
59.66370069,74.67613636,62.90062178
59.70004288,74.81089194,62.93203259
59.81475129,74.93696398,63.06410806
59.78409091,74.91659520,62.98499142
59.49174528,74.39869211,62.61653087
59.06282161,73.56432247,62.11127787
58.67924528,72.92281304,61.67066895
58.50139365,72.60173671,61.52433533
58.41423671,72.45754717,61.44060892
58.40415952,72.45883362,61.44618353
58.46676672,72.52808748,61.51007719
58.57257719,72.69822041,61.59616209
58.66563036,72.88304031,61.75739708
58.70422384,72.96665952,61.78076758
58.74989280,73.01833190,61.83565609
58.81089194,73.08083190,61.86063465
58.88550600,73.21998285,61.97405660
59.02165523,73.41445111,62.04738422
59.09573328,73.52347770,62.14118782
59.14633362,73.72073328,62.29877787
59.27690823,73.89397513,62.42656518
59.39000858,74.07697256,62.50536021
59.44961407,74.21097770,62.54331046
59.56668096,74.38464837,62.63443396
59.66059177,74.51672384,62.74442539
59.72662950,74.63722127,62.79245283
59.79813465,74.81271441,62.95400943
59.85956261,74.94060892,63.00300172
59.75482419,74.83093911,62.88539880
59.38861492,74.19393225,62.46258576
58.90984134,73.37103345,61.93557033
58.64912093,72.90426672,61.64762007
58.51554460,72.65962693,61.54213122
58.41723842,72.58490566,61.44575472
58.42720840,72.58243997,61.47909520
58.47266295,72.63668525,61.51554460
58.60463122,72.81003431,61.71955403
58.63357633,72.92688679,61.77379931
58.68460549,73.03108919,61.84476844
58.74828473,73.08812178,61.83962264
58.80231561,73.17624357,61.84734134
58.91852487,73.35398799,62.02508576
58.96183533,73.46290738,62.09691252
59.09294597,73.67356346,62.20701115
59.13389794,73.80542453,62.29899228
59.26436535,73.95583190,62.41187822
59.38904374,74.16670240,62.54577616
59.43867925,74.29502573,62.60077187
59.54138079,74.48563465,62.74185249
59.59594768,74.62167667,62.78055317
59.65351630,74.82118353,62.86470840
59.77186964,74.98134648,62.97169811
59.78880789,75.04416810,63.05124357
59.69800600,74.96923242,62.95015009
59.30478130,74.28291166,62.46301458
58.88228988,73.49742710,61.97727273
58.68782161,73.02337050,61.72169811
58.52830189,72.81325043,61.57054031
58.48981561,72.71730274,61.54320326
58.45240137,72.74228130,61.50707547
58.54899228,72.87060463,61.68771441
58.68278302,73.06893225,61.81314322
58.74667667,73.16391509,61.87918096
58.76211407,73.25353774,61.91691681
58.78516295,73.29566895,61.94575472
58.85902659,73.41477273,61.98702830
58.97330617,73.54341767,62.09616209
59.06571612,73.72159091,62.20315180
59.17206261,73.88925815,62.33501286
59.25825472,74.05713979,62.43835763
59.31132075,74.26415094,62.52229846
59.39000858,74.35999142,62.55467410
59.54491852,74.58780017,62.72201973
59.60891938,74.73799314,62.84412521
59.64901372,74.86728130,62.93867925
59.74067324,74.99560463,63.00996998
59.80338765,75.13850772,63.09605489
59.88786449,75.31325043,63.10934820
59.88550600,75.44897084,63.21162093
59.91938250,75.50600343,63.26200686
59.68289022,75.15801887,62.93481990
59.25804031,74.30713979,62.41927530
58.92184820,73.61953259,62.06807461
58.73370497,73.23670669,61.80574614
58.65748285,73.15105060,61.76575901
58.60527444,73.10120069,61.70947684
58.65759005,73.16509434,61.76865352
58.79770583,73.34894940,61.97609348
58.83083190,73.46998285,62.00578902
58.87328473,73.55017153,62.04266724
58.88915094,73.56861063,62.04631218
58.92409949,73.60891938,62.08769297
58.97898799,73.68117496,62.18117496
59.00536021,73.78730703,62.24099485
59.11771012,73.93632075,62.31153516
59.18771441,74.07257719,62.40683962
59.27969554,74.23509863,62.50546741
59.33512007,74.39622642,62.59969983
59.36342196,74.49592624,62.66016295
59.46280017,74.62789451,62.76833190
59.46794597,74.78376930,62.83308319
59.57868782,74.92367067,62.88443396
59.67195540,75.08361921,62.97405660
59.71033448,75.16873928,63.03923671
59.71837479,75.29899228,63.08115352
59.45154374,74.86149228,62.76629503
59.09744854,74.10581046,62.27669383
58.73434820,73.38078902,61.89108062
58.51918954,73.02390652,61.69243139
58.45797599,72.92131218,61.63593482
58.44478988,72.87189108,61.64697684
58.46140652,72.94425386,61.67517153
58.51114923,73.12585763,61.78945111
58.59090909,73.22384220,61.85506003
58.62478559,73.29631218,61.89493997
58.67613636,73.31957547,61.92635077
58.70851201,73.37317753,61.98123928
58.73477702,73.42560034,61.98734991
58.84605489,73.58940823,62.15630360
58.91155660,73.72437822,62.19414666
58.99142367,73.86149228,62.31689537
59.08351201,74.02219125,62.40984134
59.11599485,74.17988851,62.46483705
59.23842196,74.33640652,62.58297599
59.25128645,74.42452830,62.60806175
59.29438250,74.57525729,62.71290738
59.36996141,74.68514151,62.77969554
59.43117496,74.84991424,62.87285592
59.53087479,75.01972556,62.97148370
59.55778302,75.09208834,63.00846913
59.48606346,75.06089194,62.94125214
59.07246998,74.35034305,62.42131218
58.62735849,73.41938250,61.86406518
58.19039451,72.64258148,61.40973413
57.96054889,72.24871355,61.13657804
57.87682247,72.07922384,61.06228559
57.75021441,71.93825043,60.99785592
57.78301887,71.96933962,61.00707547
57.84026587,72.07718696,61.15072899
57.94232419,72.23970840,61.23927959
57.95433105,72.29588336,61.27873070
57.97405660,72.29223842,61.27530017
57.98563465,72.35055746,61.29759863
58.01179245,72.43975129,61.29395369
58.14354631,72.58972985,61.47930961
58.20829760,72.69135935,61.50460978
58.32836621,72.88990137,61.68707118
58.43632075,73.05445969,61.74013722
58.52208405,73.19575472,61.86942539
58.57890223,73.37500000,61.89558319
58.62360635,73.45315180,61.97201973
58.72984563,73.64236707,62.10313036
58.77315609,73.71269297,62.16659520
58.83512007,73.86234991,62.27208405
58.96440823,74.04438250,62.42002573
59.04191681,74.15619640,62.44629074
59.08844340,74.32150515,62.52283448
59.14172384,74.39365352,62.59562607
58.95722556,74.11524443,62.35430961
58.42442110,73.15876930,61.73274014
57.89644082,72.22105489,61.14108062
57.64751286,71.68160377,60.80853345
57.45786878,71.41884648,60.68750000
57.37424957,71.35323756,60.66691681
57.36610206,71.33801458,60.65469554
57.45347341,71.48263293,60.79588336
57.60495283,71.64204545,60.94586192
57.68889365,71.78301887,61.01136364
57.70969125,71.83340480,61.05596055
57.72180532,71.89483276,61.04599057
57.83083190,72.04609777,61.11835334
57.88700686,72.13529160,61.19425386
58.02787307,72.34348199,61.32504288
58.15812607,72.49689108,61.44178816
58.18942967,72.67999571,61.51833190
58.36931818,72.88625643,61.66584477
58.44339623,73.00664666,61.76114923
58.55027873,73.17870926,61.86824614
58.63775729,73.30821184,61.94393225
58.73574185,73.47587907,62.04749142
58.82086192,73.65276587,62.14354631
58.89837050,73.77186964,62.23906518
58.95090051,73.92624357,62.26243568
59.02969554,74.10966981,62.39869211
59.14922813,74.30381647,62.56410806
59.16723842,74.42238422,62.61685249
59.02294168,74.15673242,62.47534305
58.58404803,73.30274443,61.83254717
58.12371355,72.46633791,61.35463122
57.87521441,71.99828473,61.01522298
57.74549743,71.80638937,60.96290738
57.69822041,71.81057033,60.95379503
57.72834477,71.83833619,60.98542024
57.89483276,72.04213122,61.13797170
58.04234563,72.25653945,61.36138508
58.04856346,72.30092196,61.31635935
58.07557890,72.38111063,61.36974700
58.10366638,72.39997856,61.38925815
58.20668954,72.48756432,61.46955403
58.26554460,72.60045026,61.52090480
58.38100343,72.78966552,61.67667238
58.49485420,72.93203259,61.71719554
58.54802744,73.07011149,61.84798456
58.67131218,73.27165523,61.96698113
58.74967839,73.38454117,62.00911235
58.81185678,73.57021870,62.07579331
58.92259863,73.67431389,62.19511149
58.98477702,73.83769297,62.29009434
59.10795455,74.00460978,62.39204545
59.14847770,74.09959262,62.43835763
59.23852916,74.28033877,62.58329760
59.18299743,74.23960120,62.49346055
58.86256432,73.66981132,62.12521441
58.38121784,72.81946827,61.59391081
57.96966123,72.11417238,61.14804889
57.79995712,71.82632933,61.00235849
57.70604631,71.71183533,60.95197256
57.73038165,71.74453259,60.93213979
57.83844340,71.85988422,61.06485849
57.96537307,72.05885506,61.17292024
58.04138079,72.16873928,61.28902230
58.07150515,72.23188250,61.29213122
58.10313036,72.25921955,61.32611492
58.13797170,72.30435249,61.32214837
58.26575901,72.46001286,61.47995283
58.33704974,72.59326758,61.53945111
58.41391509,72.76447256,61.68385506
58.55274443,72.92753002,61.72169811
58.62274871,73.08737136,61.88947256
58.72770154,73.23563465,61.93717839
58.78087479,73.33383362,62.01693825
58.92399228,73.53634220,62.10430961
58.98499142,73.66745283,62.23284734
59.03709262,73.76050600,62.26650943
59.12757290,73.95025729,62.37114065
59.18417667,74.07204117,62.41916810
59.21676672,74.21548027,62.53387650
59.03752144,73.90458834,62.26415094
58.50911235,73.02090480,61.69950686
57.99078045,72.09519726,61.16487993
57.66166381,71.50879074,60.84005146
57.50450257,71.25192967,60.63078902
57.43342624,71.13346913,60.65169383
57.42141938,71.13411235,60.65962693
57.52530017,71.25493139,60.73520583
57.65298027,71.42806604,60.84616209
57.73456261,71.57375643,60.98520583
57.73842196,71.64558319,60.98349057
57.78773585,71.68717839,61.02980274
57.84476844,71.77722985,61.03623499
57.98166810,71.93985849,61.19286021
58.15823328,72.15394511,61.30853345
58.20122213,72.24689108,61.39547599
58.31882504,72.43825043,61.53816467
58.41391509,72.60709691,61.67463551
58.52262007,72.76833190,61.73188250
58.60516724,72.89547599,61.89161664
58.68278302,73.05906947,61.87424957
58.79952830,73.25407376,62.07397084
58.84723413,73.36245712,62.05713979
58.95861921,73.51179245,62.18932247
58.93567753,73.51865352,62.14708405
58.55167238,72.93374786,61.72427101
57.95926244,71.96226415,61.05831904
57.57118353,71.20711835,60.74699828
57.40587479,70.87971698,60.52572899
57.27669383,70.74153087,60.45122213
57.23777873,70.72684391,60.37628645
57.32364923,70.86481561,60.48810034
57.49067324,71.12060463,60.67785163
57.58747856,71.30445969,60.80746141
57.69832762,71.41016295,60.89493997
57.75750429,71.50450257,60.91723842
57.79159520,71.55467410,60.96548027
57.96419383,71.72405660,61.10270154
58.03548456,71.87575043,61.18492710
58.15030017,72.09541166,61.31453688
58.28516295,72.27530017,61.44575472
58.37253431,72.45615352,61.52090480
58.49989280,72.61310034,61.65469554
58.60355918,72.79802744,61.77015437
58.72802316,72.97630789,61.86074185
58.80242281,73.14440395,62.02562178
58.88421955,73.30317324,62.08190395
59.03269726,73.47009005,62.22973842
59.08844340,73.61760292,62.21387221
59.13775729,73.73509863,62.31335763
58.90823328,73.32439966,61.96676672
58.37167667,72.48767153,61.43921527
57.88518439,71.67956690,60.94028731
57.69157376,71.23917238,60.70057890
57.64075901,71.15448113,60.68728559
57.58512007,71.09862779,60.72319897
57.64022298,71.20926244,60.79373928
57.79363208,71.45165094,60.89140223
57.94929245,71.68728559,61.07386364
57.99024443,71.79984991,61.14654803
58.03473413,71.86663808,61.18160377
58.11063465,72.01222127,61.24335334
58.21494425,72.13496998,61.33651372
58.36117067,72.31014151,61.50053602
58.49388937,72.51082762,61.57665094
58.61363636,72.68246141,61.74228130
58.75375214,72.93342624,61.79063036
58.77937393,73.04524014,61.88722127
58.92056175,73.28248285,62.08158233
58.96569468,73.39879931,62.10741852
59.12339194,73.58629931,62.22416381
59.22791595,73.77980274,62.40115780
59.25418096,73.90319468,62.44693396
59.36717410,74.07086192,62.54105918
59.44575472,74.20411664,62.62628645
59.54052316,74.40244425,62.73563465
59.46665952,74.30949828,62.61953259
59.06582333,73.60870497,62.16595197
58.55960549,72.75450257,61.52915952
58.21065609,72.15705403,61.26275729
58.12092624,71.97727273,61.17795883
58.05874786,71.94253859,61.16080617
58.10816895,72.02026158,61.17849485
58.22384220,72.20926244,61.37714408
58.33908662,72.37896655,61.46880360
58.41209262,72.53044597,61.54845626
58.43267581,72.58190395,61.56882504
58.49817753,72.68685678,61.65298027
58.53634220,72.73531304,61.68042453
58.63389794,72.87617925,61.78827187
58.74249571,73.03280446,61.85506003
58.81668096,73.14386792,62.01179245
58.89676244,73.37124786,62.00160806
59.00643225,73.53108919,62.17066895
59.10591767,73.71612350,62.27079760
59.15608919,73.80017153,62.33383362
59.30756861,73.99839194,62.49153087
59.38732847,74.16391509,62.61631647
59.42109777,74.24849914,62.61578045
59.56818182,74.46783877,62.73842196
59.58619211,74.54674099,62.76972556
59.47116209,74.40147942,62.65555317
59.03891509,73.65448113,62.14933533
58.56164237,72.79749142,61.63582762
58.28891509,72.27219125,61.30992710
58.17195540,72.10999142,61.27915952
58.16970412,72.12617925,61.30928388
58.21440823,72.19296741,61.37585763
58.34948542,72.42024014,61.49849914
58.50986278,72.61835334,61.65158662
58.50321612,72.68846484,61.66230703
58.53805746,72.74024443,61.69907804
58.56732419,72.77830189,61.74120926
58.63196827,72.88518439,61.75096484
58.76286449,73.06046312,61.92538593
58.85881218,73.20486707,62.03183962
58.98456261,73.39472556,62.13507719
59.04609777,73.51993997,62.20604631
59.14708405,73.69425386,62.30167238
59.27315609,73.85613208,62.38829331
59.34230274,73.99882075,62.50525300
59.43213979,74.15405232,62.62489280
59.45722556,74.25782590,62.66756003
59.56400086,74.42334906,62.71044168
59.62296312,74.54234563,62.81957547
59.71280017,74.68449828,62.93256861
59.60827616,74.50128645,62.75257290
59.01736707,73.57590051,62.15608919
58.44071612,72.62596484,61.51683105
58.02594340,71.85934820,61.08597770
57.87993139,71.53966552,60.89515437
57.77690823,71.39118782,60.89225986
57.75503859,71.37853774,60.86095626
57.76951115,71.45497427,60.90137221
57.85977702,71.58597770,61.01329331
57.99592624,71.74228130,61.11792453
58.00139365,71.80585334,61.15383791
58.02283448,71.83329760,61.18106775
58.08404803,71.89193825,61.22877358
58.18599914,72.03098199,61.36181389
58.34026587,72.22920240,61.46655232
58.36202830,72.32043310,61.47630789
58.50782590,72.52605060,61.62939537
58.60956261,72.70090051,61.71333619
58.72212693,72.84584048,61.76629503
58.86492281,73.02958834,61.94725557
58.88207547,73.13186106,61.96247856
58.99346055,73.31035592,62.11674528
59.07193396,73.38797170,62.16348628
59.21462264,73.59176672,62.31003431
59.26457976,73.71955403,62.34755575
59.35366638,73.85366638,62.47716552
59.37135506,73.91445111,62.50450257
59.07075472,73.44382504,62.14150943
58.46698113,72.46162093,61.48563465
57.94039451,71.54588336,60.92281304
57.70969125,71.07675815,60.65973413
57.60248714,70.88679245,60.60741852
57.49067324,70.75611063,60.50782590
57.51993997,70.81303602,60.54545455
57.62928816,70.94596913,60.62414237
57.83340480,71.21376501,60.83769297
57.88218268,71.32086192,60.88325472
57.90705403,71.35388079,60.93235420
58.00696827,71.46966123,61.01468696
58.06882504,71.59948542,61.09605489
58.18632075,71.79331046,61.18310463
58.33276158,71.94425386,61.30703259
58.47094768,72.15169383,61.40555317
58.55960549,72.35891938,61.53387650
58.64997856,72.52304889,61.63411235
58.80885506,72.72266295,61.77390652
58.88925815,72.84809177,61.81378645
59.00536021,73.04030875,61.93889365
59.06839623,73.18053173,62.02444254
59.18096055,73.34669811,62.16187822
59.26082762,73.49496141,62.21129931
59.34090909,73.66102058,62.31518010
59.44478988,73.81228559,62.46794597
59.54792024,73.98381218,62.51018439
59.40351630,73.83211835,62.36406518
58.95293739,73.13175386,61.85366638
58.40887650,72.19982847,61.27508576
58.12682247,71.69050172,61.00482419
58.00021441,71.49528302,60.90630360
57.93910806,71.45433105,60.81710978
57.95100772,71.47523585,60.85838336
58.08265437,71.64826329,60.98509863
58.22888079,71.86245712,61.17442110
58.24882075,71.93964408,61.22373499
58.30799743,72.08179674,61.29984991
58.33029588,72.10216552,61.32343482
58.39611921,72.17892367,61.36503002
58.49581904,72.31850343,61.47952401
58.60956261,72.49228130,61.57096913
58.72577187,72.70819039,61.68160377
58.79406089,72.84251715,61.79706261
58.92506432,73.02755146,61.86674528
58.97652230,73.19114494,61.95508148
59.10098628,73.34691252,62.12778731
59.17002573,73.48349057,62.16831046
59.26286449,73.63572041,62.22362779
59.36985420,73.81367925,62.38271870
59.41573756,73.93224700,62.43953688
59.54845626,74.11921098,62.53409091
59.60248714,74.23070326,62.66166381
59.52594340,74.15094340,62.54631218
59.13089623,73.50396655,62.07493568
58.66466552,72.76650943,61.58404803
58.36213551,72.29030875,61.32418525
58.24785592,72.11985420,61.20454545
58.24335334,72.13786449,61.23413379
58.27379931,72.19554031,61.29395369
58.42795883,72.40673242,61.44189537
58.55531732,72.58554889,61.54802744
58.56378645,72.64804889,61.56250000
58.58147513,72.71933962,61.57547170
58.59101630,72.77733705,61.61438679
58.70593911,72.92077616,61.73402659
58.82300600,73.06421527,61.91820326
58.88775729,73.18578473,61.96172813
58.98874357,73.37896655,62.03912950
59.04127358,73.49796312,62.12210549
59.17592196,73.70679674,62.23316895
59.26704545,73.85559605,62.32064751
59.36738851,74.01018439,62.43085334
59.46430103,74.15984134,62.52476415
59.52133362,74.28226844,62.58822899
59.63765009,74.46012007,62.71590909
59.69500429,74.58394082,62.79213122
59.77176244,74.72437822,62.84959262
59.75600343,74.81753859,62.93331904
59.55971269,74.51382933,62.64461835
59.11963979,73.70068611,62.09412521
58.60902659,72.85859777,61.63797170
58.30081475,72.33469125,61.24892796
58.19039451,72.15866209,61.12049743
58.11985420,72.06067753,61.13850772
58.08340480,72.03451973,61.16337907
58.16048456,72.13132504,61.24731990
58.28044597,72.29009434,61.32804460
58.32783019,72.40051458,61.40866209
58.34798456,72.40994854,61.39258148
58.39869211,72.46451544,61.45551029
58.43096055,72.54116638,61.45090051
58.54802744,72.69725557,61.57268439
58.61331475,72.81164237,61.66005575
58.67753002,73.01908233,61.72384220
58.80885506,73.16648799,61.89290309
58.89569039,73.28912950,61.97309177
59.00621784,73.46183533,62.07054031
59.04620497,73.55027873,62.14997856
59.16348628,73.73938679,62.28462693
59.24892796,73.86749571,62.28366209
59.30917667,73.98220412,62.34755575
59.42442110,74.12489280,62.51704545
59.47030446,74.22394940,62.52712264
59.57343482,74.39333190,62.67656518
59.62982419,74.53569897,62.72223413
59.66391509,74.60988422,62.79920669
59.38818611,74.18321184,62.45100772
58.82322041,73.19393225,61.83286878
58.32364923,72.38539880,61.33243997
58.11728130,71.90180103,61.04952830
57.97963122,71.69210978,60.88314751
57.91048456,71.59830617,60.87682247
57.88561321,71.57793739,60.89354631
57.98209691,71.72759434,61.04599057
58.10645369,71.89912093,61.11867496
58.16123499,71.99764151,61.18739280
58.19746998,72.02722985,61.20283019
58.25879074,72.10398799,61.23306175
58.34015866,72.24260292,61.36095626
58.40673242,72.32397084,61.42924528
58.53719983,72.52004717,61.55521012
58.63003859,72.67484991,61.69350343
58.71751715,72.85731132,61.72845197
58.83737136,73.03334048,61.87875214
58.85302316,73.15169383,61.88818611
59.00257290,73.32911664,62.05210120
59.08962264,73.44704117,62.12885935
59.17270583,73.59809177,62.23188250
59.27079760,73.73156089,62.32868782
59.32343482,73.85473842,62.30070755
59.45015009,74.05092196,62.43385506
59.50514580,74.17581475,62.50879074
59.63496998,74.38904374,62.65426672
59.68503431,74.48198971,62.69446827
59.56271441,74.37832333,62.58136792
59.13143225,73.58404803,62.11685249
58.59766295,72.71430103,61.55842624
58.28912950,72.15319468,61.21901801
58.09616209,71.85195111,61.00825472
58.08029588,71.84165952,61.05306604
58.03848628,71.82643654,61.02626501
58.13293310,71.96076329,61.16595197
58.27272727,72.15523156,61.27530017
58.34015866,72.27326329,61.38475557
58.35366638,72.31014151,61.38904374
58.37124786,72.31657376,61.43235420
58.45240137,72.42259863,61.46333619
58.51565180,72.54331046,61.56496569
58.59819897,72.69296741,61.62371355
58.72512864,72.88443396,61.75150086
58.76168525,72.98016724,61.77262007
58.88732847,73.15405232,61.90812607
58.97502144,73.32600772,62.00825472
59.07858062,73.46816038,62.10195111
59.17795883,73.66037736,62.16616638
59.23027444,73.78730703,62.28966552
59.36031304,73.95122213,62.42120497
59.41530875,74.09841338,62.47298456
59.53301887,74.27787307,62.59884220
59.59701973,74.45872642,62.66027015
59.61792453,74.50836192,62.67452830
59.39654803,74.15405232,62.44178816
58.88614923,73.28945111,61.89365352
58.40844768,72.51608062,61.41873928
58.18181818,72.13550600,61.11813894
58.09337479,72.01168525,61.08694254
58.04352487,71.96440823,61.07075472
58.04073756,71.98263293,61.17474271
58.19189537,72.18138937,61.30724700
58.30156518,72.36803173,61.38346913
58.32311321,72.41702401,61.34691252
58.38218268,72.48681389,61.41048456
58.41541595,72.52219125,61.48702830
58.50343053,72.64686964,61.55381647
58.56882504,72.78259005,61.64193825
58.68331904,72.95561750,61.77958834
58.73810034,73.09530446,61.79877787
58.84884220,73.26372213,61.99914237
58.92988851,73.40458834,62.06882504
59.00503859,73.59144511,62.15190823
59.13754288,73.76125643,62.27476415
59.16713122,73.84766295,62.34358919
59.23960120,74.00225129,62.42763722
59.35173671,74.14933533,62.52583619
59.42077616,74.27369211,62.55392367
59.50418096,74.46194254,62.69371784
59.52422813,74.61899657,62.72362779
59.63529160,74.74421098,62.80960549
59.58394082,74.72009005,62.78505575
59.21976844,74.13314751,62.32246998
58.64762007,73.11674528,61.71944683
58.14247427,72.25482419,61.21215695
57.87424957,71.82214837,60.88711407
57.72941681,71.58126072,60.77551458
57.65791166,71.50996998,60.76211407
57.64097341,71.47888079,60.81378645
57.74228130,71.64022298,60.83404803
57.87006861,71.80167238,61.05896226
57.87853774,71.87124786,61.04020154
57.93439108,71.92860206,61.10849057
57.99249571,72.00214408,61.11256432
58.11953259,72.16155660,61.27733705
58.18996569,72.29738422,61.31539451
58.29577616,72.44028731,61.44629074
58.40415952,72.63936535,61.52272727
58.52840909,72.81271441,61.71151372
58.61267153,72.97051887,61.75225129
58.68932247,73.13550600,61.82632933
58.84873499,73.33651372,61.98445540
58.94779160,73.49517581,62.06978988
59.00954117,73.60602487,62.10838336
59.14869211,73.82236278,62.25996998
59.19125214,73.94897084,62.29716981
59.33597770,74.15887650,62.50171527
59.43589194,74.30896226,62.52551458
59.52948113,74.52905232,62.70743997
59.65233705,74.69950686,62.82858062
59.56743139,74.75932676,62.74195969
59.30810463,74.20947684,62.37864494
58.72416381,73.26447256,61.79277444
58.33372642,72.46944683,61.32086192
58.08436964,72.02905232,61.06357204
58.01843911,71.95047170,60.99163808
57.97298456,71.87071184,61.00300172
57.97019726,71.87114065,60.99592624
58.07954545,72.00664666,61.14386792
58.17592196,72.17742281,61.23102487
58.26457976,72.29824185,61.33168954
58.27701544,72.31132075,61.35484563
58.31089194,72.39279588,61.40308748
58.44339623,72.54952830,61.49313894
58.48466981,72.64247427,61.54105918
58.64847770,72.82858062,61.69843482
58.71526587,72.96548027,61.75385935
58.84466123,73.15490995,61.92956690
58.94350343,73.34509005,62.03355489
59.02079760,73.48670669,62.07997427
59.11245712,73.67592196,62.19157376
59.15244425,73.78451973,62.20047170
59.27304889,73.96730274,62.34659091
59.35548885,74.09369640,62.39751286
59.45733276,74.28987993,62.53923671
59.57686535,74.49238851,62.67849485
59.60623928,74.59916381,62.73788593
59.74217410,74.78891509,62.86846055
59.62039022,74.67463551,62.75246569
59.26908233,74.07890223,62.28923671
58.79556175,73.22716552,61.73402659
58.43535592,72.63175386,61.41069897
58.35270154,72.43932247,61.33533448
58.25611063,72.33651372,61.21623070
58.26822470,72.39022298,61.29266724
58.33276158,72.51329331,61.35634648
58.49892796,72.71162093,61.59240995
58.54770583,72.79920669,61.65919811
58.53376930,72.81400086,61.61395798
58.55349485,72.85087907,61.62274871
58.65941252,72.96365780,61.73617067
58.74528302,73.13186106,61.77144082
58.80831904,73.25321612,61.88186106
58.90662521,73.42656518,61.96515866
59.03559177,73.60420240,62.02980274
59.10270154,73.73713551,62.22577187
59.19886364,73.93578473,62.33008148
59.25278731,74.05145798,62.39536878
59.34712693,74.26329331,62.56496569
59.42828045,74.35409520,62.58201115
59.48906518,74.49292453,62.65051458
59.61663808,74.66573756,62.74914237
59.67216981,74.82118353,62.82439966
59.73220412,74.99592624,62.90566038
59.67452830,74.93031732,62.84884220
59.33297599,74.29288165,62.38550600
58.75268010,73.38475557,61.83351201
58.36588765,72.64697684,61.35388079
58.20336621,72.37768010,61.23316895
58.10763293,72.23842196,61.16852487
58.07075472,72.23263293,61.16445111
58.08704974,72.27015437,61.20626072
58.16134220,72.45057890,61.28312607
58.26801029,72.57547170,61.43396226
58.27862350,72.61803173,61.44757719
58.32847341,72.63850772,61.45240137
58.35849057,72.68889365,61.47898799
58.41991852,72.82750858,61.55156518
58.51929674,72.96483705,61.62221269
58.57890223,73.08619211,61.70004288
58.69457547,73.29556175,61.88625643
58.76125643,73.46558748,61.91219983
58.83522727,73.61159949,62.02540738
58.92109777,73.69275300,62.08490566
59.01983276,73.91455832,62.22609348
59.06839623,74.02101201,62.22062607
59.14268868,74.11931818,62.34873499
59.25964837,74.33512007,62.49313894
59.25825472,74.41434391,62.50932676
59.36513722,74.59669811,62.59755575
59.38014580,74.70797599,62.65630360
59.47159091,74.83544168,62.73767153
59.34251715,74.63454117,62.59101630
58.81132075,73.81174957,61.96976844
58.28473413,72.84240995,61.39665523
57.92506432,72.16541595,60.92592196
57.76243568,71.92324185,60.79245283
57.66938250,71.76908233,60.73777873
57.56432247,71.67903087,60.75278731
57.65501715,71.77444254,60.77144082
57.76307890,71.89279588,60.93889365
57.81818182,71.99721269,60.99035163
57.84669811,72.06710978,61.02294168
57.85313036,72.10741852,61.02401372
57.95518868,72.20926244,61.11320755
58.01457976,72.31818182,61.13336192
58.16112779,72.51275729,61.32622213
58.23638508,72.66884648,61.35538165
58.37114065,72.86192110,61.57997427
58.46698113,73.00686106,61.62221269
58.58544168,73.18685678,61.78248285
58.68524871,73.39236707,61.85120069
58.75857633,73.53451973,61.94768439
58.85045026,73.70551029,62.04856346
58.91948971,73.81035592,62.09273156
58.98799314,74.01565180,62.17903087
59.08994425,74.15212264,62.23252573
59.18396226,74.34626930,62.41788165
59.27133362,74.52905232,62.54877787
59.28666381,74.64322470,62.58233276
59.32783019,74.72084048,62.60420240
58.96665952,74.07922384,62.21108491
58.49249571,73.15566038,61.58962264
58.07847341,72.41616638,61.09198113
57.85548885,72.03623499,60.92474271
57.79888508,71.96505146,60.84819897
57.74656947,71.89536878,60.81946827
57.79127358,71.98381218,60.91177101
57.89472556,72.15437393,61.07161235
57.97866638,72.30349485,61.15062178
58.02165523,72.39108062,61.23177530
58.02326329,72.39976415,61.20915523
58.04438250,72.45411664,61.28001715
58.09723413,72.54170240,61.26618782
58.20819039,72.68138937,61.35784734
58.28805746,72.82257719,61.47973842
58.38271870,73.00150086,61.57332762
58.47502144,73.17849485,61.66863208
58.55917667,73.35484563,61.81710978
58.66284305,73.52219125,61.89204545
58.69982847,73.65308748,61.94618353
58.82064751,73.79620497,62.03977273
58.86299314,73.97920240,62.17302744
58.95701115,74.10087907,62.21730274
59.08458405,74.25868353,62.32364923
59.14858491,74.43396226,62.39751286
59.18953688,74.51608062,62.48198971
58.91284305,74.14461835,62.17913808
58.47662950,73.32825901,61.63829331
58.04813465,72.53977273,61.18063894
57.81625214,72.10077187,60.90651801
57.73188250,72.00675386,60.86460120
57.70068611,71.99914237,60.85441681
57.76329331,72.08812178,60.94704117
57.89054460,72.26254288,61.13346913
57.93353345,72.40909091,61.13657804
57.96623070,72.47394940,61.18792882
57.99035163,72.52337050,61.17860206
58.02744425,72.56946827,61.26222127
58.07772298,72.67892367,61.33093911
58.13036021,72.82075472,61.41080617
58.28827187,73.00460978,61.52948113
58.35945540,73.12017581,61.63068182
58.43085334,73.28376930,61.67120497
58.50825472,73.44286021,61.80585334
58.56593053,73.64311750,61.87060463
58.71097770,73.80703259,62.06560892
58.75064322,73.91959691,62.06775300
58.82783019,74.07783019,62.21655232
58.87510720,74.16262864,62.21837479
58.96215695,74.35388079,62.36074185
59.03366209,74.52465695,62.44382504
59.08168954,74.60934820,62.50793310
59.11824614,74.73038165,62.53205403
58.78430532,74.27980274,62.20497427
58.26104202,73.33243997,61.54620497
57.75364494,72.40094340,60.99849914
57.47802316,71.88304031,60.64354631
57.33040309,71.64965695,60.57761578
57.21933962,71.46869640,60.46290738
57.18825043,71.47770154,60.49699828
57.19114494,71.51961835,60.49839194
57.36234991,71.74292453,60.64965695
57.37585763,71.80746141,60.69125214
57.39997856,71.85109348,60.70272298
57.42753002,71.91380789,60.72362779
57.41391509,71.93792882,60.77819468
57.53966552,72.10506003,60.91359348
57.57354202,72.19425386,60.97255575
57.70465266,72.40190823,61.11417238
57.80220840,72.54191681,61.19414666
57.87221269,72.68439108,61.24120926
57.93728559,72.85045026,61.38604202
58.01061321,72.98874357,61.38968696
58.10538165,73.15040738,61.56871784
58.18342624,73.28248285,61.58308319
58.20894082,73.44157376,61.67956690
58.30939108,73.55767581,61.76093482
58.37028302,73.66230703,61.85398799
58.50000000,73.89601201,61.93546312
58.57086192,74.00160806,62.07643654
58.62575043,74.11888937,62.11031304
58.47319897,73.93760720,61.96355060
57.96569468,73.06024871,61.33083190
57.38271870,72.02937393,60.72491424
57.05006432,71.38111063,60.25160806
56.88518439,71.15126501,60.13518439
56.74153087,70.96580189,60.10259434
56.74292453,70.95090051,60.10784734
56.78473413,71.02015437,60.14944254
56.95658233,71.22352058,60.34594768
57.00600343,71.32439966,60.37199828
57.00268010,71.36931818,60.37146226
57.05456690,71.43792882,60.37939537
57.11320755,71.52144082,60.47534305
57.19586192,71.62703688,60.58844340
57.32086192,71.80692539,60.74045883
57.37564322,71.95668954,60.71933962
57.48670669,72.11063465,60.86663808
57.57557890,72.26232847,60.96966123
57.67849485,72.48424099,61.13239708
57.77133362,72.61117067,61.20636792
57.85109348,72.74581904,61.28033877
57.96633791,72.96097770,61.40737564
58.01018439,73.04920669,61.48509863
58.11084906,73.21891081,61.56775300
58.17034734,73.34101630,61.63196827
58.21419383,73.54459691,61.72491424
58.34584048,73.67517153,61.81046312
58.38357633,73.83554889,61.89794168
58.39912093,73.87746569,61.92870926
58.01929674,73.25278731,61.49442539
57.44318182,72.27658662,60.79223842
56.99485420,71.45261578,60.34455403
56.79920669,71.08415523,60.13518439
56.69189537,70.96698113,60.09219554
56.64215266,70.94918525,60.13464837
56.70143654,71.05971269,60.16370069
56.80939108,71.22748714,60.29502573
56.91316467,71.36020583,60.31518010
56.91477273,71.37939537,60.36910377
56.94725557,71.41166381,60.37071184
56.96344340,71.44822041,60.40619640
57.02412093,71.54063036,60.48188250
57.14676244,71.75225129,60.57665094
57.21097770,71.83662093,60.66144940
57.32654374,72.03730703,60.82225557
57.39365352,72.17474271,60.87242710
57.49260292,72.41948971,61.00439537
57.60302316,72.57922384,61.09959262
57.61888937,72.68685678,61.17506432
57.73713551,72.86020583,61.28644940
57.80328045,72.93149657,61.33629931
57.90201544,73.10677530,61.45068611
57.94478988,73.25182247,61.52476415
58.09208834,73.45229417,61.65919811
58.10130789,73.58544168,61.73745712
57.82590051,73.18760720,61.37307033
57.24678388,72.27487136,60.82482847
56.72341338,71.28194683,60.16252144
56.38700686,70.73927959,59.85956261
56.22684391,70.49807033,59.72448542
56.17753002,70.45390223,59.66595197
56.19135935,70.51147084,59.70079331
56.27476415,70.63153945,59.86695969
56.41745283,70.83490566,59.95690395
56.45936964,70.91134220,60.04577616
56.49721269,70.98670669,60.06603774
56.53891509,71.05821184,60.07407804
56.56582333,71.13893654,60.12371355
56.71247856,71.33211835,60.27315609
56.73670669,71.42216981,60.27958834
56.85012864,71.63679245,60.43310463
56.96322899,71.79684820,60.54770583
57.06367925,71.95411664,60.67560034
57.13379074,72.14558319,60.78902230
57.18160377,72.26179245,60.90158662
57.29502573,72.42281304,60.88464837
57.32579331,72.55049314,60.98617067
57.46537307,72.71044168,61.14054460
57.50696827,72.86202830,61.22502144
57.58930103,72.99860635,61.31507290
57.69307461,73.20272298,61.40169383
57.73338336,73.30049314,61.45765437
57.65619640,73.21151372,61.39697684
57.10956261,72.36749571,60.74442539
56.49967839,71.28033877,60.09637650
56.03259005,70.47427101,59.59455403
55.75643225,70.06260720,59.42302744
55.57697256,69.89858491,59.22920240
55.54095197,69.81903945,59.28709262
55.58115352,69.86417238,59.31893225
55.72555746,70.06775300,59.43975129
55.86985420,70.24571184,59.54266724
55.90919811,70.32793739,59.61138508
55.92656518,70.35195111,59.62274871
55.98670669,70.45132933,59.65415952
56.05885506,70.54684820,59.68192539
56.23006003,70.76415094,59.84562607
56.28505575,70.91348628,59.97330617
56.43449828,71.13561321,60.12339194
56.54524014,71.33662093,60.21762436
56.63915094,71.50471698,60.37950257
56.75653945,71.68535592,60.42935249
56.82472127,71.83308319,60.47716552
56.96408662,72.07322041,60.64804889
57.04867067,72.20454545,60.75943396
57.16273585,72.41916810,60.87585763
57.18138937,72.51822470,60.91616638
57.31174957,72.68910806,61.02615780
57.40501715,72.91016295,61.16895369
57.46740995,73.03001715,61.26951115
57.48070326,73.07933105,61.25857633
57.08619211,72.46419383,60.79888508
56.49303173,71.44972127,60.10602487
56.05285163,70.62103345,59.64247427
55.84283877,70.18825043,59.32547170
55.72759434,70.05349485,59.25053602
55.67720840,69.97566467,59.28527015
55.73488422,70.06271441,59.33951544
55.79534734,70.25761149,59.45765437
55.93825043,70.44661235,59.60355918
56.01425815,70.51254288,59.69050172
56.00761149,70.52798027,59.63111063
56.05413808,70.59165952,59.69950686
56.11320755,70.73284734,59.77830189
56.21280017,70.90083619,59.95915523
56.29084477,71.05885506,59.91520154
56.43117496,71.22598628,60.09541166
56.55713979,71.43385506,60.18792882
56.60463122,71.57933105,60.30853345
56.74817753,71.76833190,60.39847770
56.83051029,71.90876930,60.50117925
56.90909091,72.07997427,60.56303602
57.02197684,72.26211407,60.73274014
57.08565609,72.34809177,60.77733705
57.14751286,72.52551458,60.89065180
57.22598628,72.66981132,60.98349057
57.34659091,72.83265437,61.09766295
57.29556175,72.83029588,61.04063036
56.92377787,72.30713979,60.64590480
56.42688679,71.38379074,60.02658662
56.00053602,70.62489280,59.56357204
55.84219554,70.34969983,59.38228988
55.79502573,70.27851630,59.37542882
55.75975557,70.28548456,59.33951544
55.84251715,70.44500429,59.51382933
55.96119211,70.64922813,59.68889365
56.07611492,70.81518010,59.80531732
56.04041595,70.83587050,59.75289451
56.08168954,70.89108062,59.81132075
56.08651372,71.00996998,59.83651372
56.18364065,71.11138508,59.94521870
56.31250000,71.30349485,60.04320326
56.38872213,71.41295026,60.13121784
56.50160806,71.62060463,60.24260292
56.58415523,71.78419811,60.33951544
56.64376072,71.92956690,60.45422384
56.77894511,72.13036021,60.61106346
56.83361921,72.24035163,60.66573756
56.90919811,72.44114494,60.76661664
56.97727273,72.53066038,60.82075472
57.06753859,72.68717839,60.95368782
57.17270583,72.87617925,61.03998714
57.20325901,73.00814751,61.15373070
57.23038165,73.08694254,61.13625643
56.89601201,72.60870497,60.74421098
56.37628645,71.66445111,60.11685249
55.79577616,70.74924957,59.54877787
55.54491852,70.20122213,59.21858919
55.41284305,70.00739708,59.15040738
55.32900943,69.92699400,59.10902659
55.34380360,69.92549314,59.13925815
55.38765009,70.02744425,59.18246141
55.55724700,70.25192967,59.40694683
55.58715695,70.35902659,59.44693396
55.59562607,70.38765009,59.42838765
55.63057461,70.43439108,59.49035163
55.72137650,70.51618782,59.51725986
55.78644940,70.66552316,59.63314751
55.86159949,70.79963551,59.71665952
55.97480703,70.98595626,59.80542453
56.06700257,71.18599914,59.91391509
56.13357633,71.31046312,59.97491424
56.28494854,71.48627787,60.10098628
56.33512007,71.59626930,60.15887650
56.47577187,71.78259005,60.34305317
56.54942110,71.92506432,60.38068182
56.59240995,72.03987993,60.48220412
56.70722556,72.21665952,60.58822899
56.72984563,72.34584048,60.64086621
56.81153516,72.51479417,60.74828473
56.85934820,72.62735849,60.85956261
56.81357204,72.61996141,60.79577616
56.40994854,71.90201544,60.31003431
55.77133362,70.76704545,59.55949828
55.28409091,69.97384220,59.06432247
55.07204117,69.53987993,58.78795026
54.94361063,69.35184391,58.72920240
54.86149228,69.25321612,58.68160377
54.85784734,69.26951115,58.71933962
54.98670669,69.45690395,58.85656089
55.08383362,69.57225557,58.96955403
55.18160377,69.68910806,59.01715266
55.18557033,69.74260292,59.05906947
55.24817753,69.81421527,58.98274014
55.33394082,69.96365780,59.16734563
55.42474271,70.11449400,59.26243568
55.57096913,70.34283877,59.45111492
55.65051458,70.50728988,59.49571184
55.78548456,70.72566467,59.60795455
55.86910377,70.87853774,59.69436106
56.00064322,71.07590051,59.87843053
56.07761578,71.29995712,59.94725557
56.19189537,71.42452830,60.06367925
56.32204117,71.62607204,60.17045455
56.39215266,71.76393654,60.27637221
56.48542024,71.94103774,60.37800172
56.59326758,72.11277873,60.55596055
56.67774443,72.28130360,60.58126072
56.78108919,72.48177530,60.68460549
56.76929674,72.53644940,60.68910806
56.45808319,71.99431818,60.29406089
55.88561321,71.01983276,59.63732847
55.48274014,70.18557033,59.12553602
55.26232847,69.77583619,58.98617067
55.16809605,69.66144940,58.88593482
55.17002573,69.65759005,58.89686964
55.23810034,69.75225129,59.04920669
55.40244425,69.99892796,59.15844768
55.52873070,70.18417667,59.34905660
55.52937393,70.26393654,59.34884220
55.58051029,70.32129074,59.39011578
55.60173671,70.37360635,59.38861492
55.67870926,70.46858919,59.47695111
55.75278731,70.61470840,59.51779588
55.88700686,70.80167238,59.72512864
55.96590909,70.94961407,59.73885077
56.06882504,71.14451115,59.90072899
56.16948971,71.34058748,59.93792882
56.23906518,71.47748714,60.08490566
56.35045026,71.65212264,60.18728559
56.43599914,71.81250000,60.29277444
56.53730703,72.01200686,60.41080617
56.57611492,72.15587479,60.50686106
56.64451115,72.31646655,60.56839623
56.80060034,72.50214408,60.71548027
56.85666810,72.62832333,60.76983276
56.86117067,72.63561321,60.76318611
56.44157376,72.01425815,60.26404374
56.04073756,71.21376501,59.74142367
55.74195969,70.61310034,59.40233705
55.59616209,70.37317753,59.29298885
55.56185678,70.36460120,59.24346055
55.57332762,70.36642367,59.32547170
55.72888079,70.60430961,59.46408662
55.84669811,70.77272727,59.65566038
55.88539880,70.90834048,59.68750000
55.93417667,70.98799314,59.75300172
55.97716552,71.03141081,59.79534734
56.02197684,71.13175386,59.82665094
56.09337479,71.27283448,59.92141938
56.22620069,71.45304460,60.09798456
56.30381647,71.62414237,60.13078902
56.42345626,71.80338765,60.26736707
56.55810463,71.99120926,60.44554031
56.57868782,72.15801887,60.51286449
56.67013293,72.32622213,60.57021870
56.71558748,72.46901801,60.68492710
56.81539451,72.66423671,60.84305317
56.88625643,72.79856346,60.93599914
56.97287736,72.94007290,60.96794597
57.09283877,73.13486278,61.09240995
57.11320755,73.27208405,61.14686964
57.01640223,73.20615352,61.05649657
56.61202830,72.44822041,60.54641938
56.18042453,71.54534734,59.98359777
55.84294597,70.93942967,59.58051029
55.69007290,70.67334906,59.45851201
55.65587479,70.61578045,59.42324185
55.59305317,70.56174957,59.39258148
55.63475557,70.64869211,59.42527873
55.80242281,70.83394082,59.65598199
55.86234991,70.97277015,59.74442539
55.87885935,71.03773585,59.73906518
55.89247427,71.07536449,59.67377787
55.95293739,71.16648799,59.77540738
56.02669383,71.24989280,59.86674528
56.12521441,71.43846484,59.92903087
56.21333619,71.60763293,60.06818182
56.31121355,71.78226844,60.21215695
56.44650515,71.99860635,60.33501286
56.56732419,72.19832762,60.49313894
56.76404374,72.42656518,60.63711407
56.85109348,72.53205403,60.75332333
56.91509434,72.60763293,60.76522298
56.90115780,72.59262436,60.76286449
56.90437393,72.64965695,60.78409091
56.95068611,72.72427101,60.82439966
57.00407376,72.84841338,60.91445111
57.11234991,73.04180961,61.07847341
56.88261149,72.70079331,60.80306604
56.45240137,71.82204117,60.15909091
55.90930532,70.93374786,59.58104631
55.63464837,70.36749571,59.31217839
55.47748714,70.14837050,59.11599485
55.36449400,70.00493139,59.13100343
55.37778731,70.01801029,59.14086621
55.46419383,70.12328473,59.21762436
55.62039022,70.31099914,59.34787736
55.72041166,70.47813036,59.48820755
55.69210978,70.52337050,59.40330189
55.73231132,70.56099914,59.50203688
55.76050600,70.62264151,59.56217839
55.87768010,70.78762864,59.67463551
55.95936964,70.91305746,59.67999571
56.07472127,71.07772298,59.81957547
56.21387221,71.28484134,59.99003002
56.23852916,71.43878645,60.02733705
56.40844768,71.65887650,60.18074614
56.49485420,71.84626930,60.29116638
56.61610206,72.03419811,60.41777444
56.72684391,72.23756432,60.55853345
56.78719983,72.33479846,60.62810892
56.90641081,72.53055317,60.74303173
56.93096055,72.66166381,60.80981990
57.03569897,72.83865780,60.94650515
57.01993997,72.84262436,60.93653516
56.68696398,72.35398799,60.53430532
56.25053602,71.47545026,59.91134220
55.79416810,70.71762436,59.47984563
55.67988851,70.37049743,59.26993997
55.59391081,70.26736707,59.28409091
55.57825901,70.26951115,59.28687822
55.64408233,70.37907376,59.36835334
55.71494425,70.50804031,59.47459262
55.79009434,70.67388508,59.57311321
55.78259005,70.69425386,59.53580617
55.81367925,70.71076329,59.57461407
55.82900943,70.75139365,59.55842624
55.94146655,70.87778731,59.72319897
56.01597341,71.00696827,59.77883791
56.13454117,71.19800600,59.95057890
56.24078045,71.36449400,60.00750429
56.31668096,71.51565180,60.13486278
56.43728559,71.68535592,60.22930961
56.50728988,71.83469125,60.30038593
56.54063036,71.91091338,60.36524443
56.63132504,72.09509005,60.46472985
56.66016295,72.22727273,60.51672384
56.74774871,72.37510720,60.60130789
56.82900943,72.50739708,60.72802316
56.80789022,72.57933105,60.73306175
56.52733705,72.10666810,60.35645369
56.03033877,71.15598199,59.75525300
55.65008576,70.39193825,59.28216123
55.37049743,69.99335334,59.06818182
55.29641938,69.88046741,59.02819468
55.25300172,69.87092624,59.08404803
55.25064322,69.91252144,59.04631218
55.41027015,70.10173671,59.22695111
55.47673671,70.22759434,59.28912950
55.51157804,70.36149228,59.40394511
55.54084477,70.38797170,59.40147942
55.58522727,70.46408662,59.45508148
55.66852487,70.62414237,59.51393654
55.75225129,70.74539022,59.57064751
55.86803173,70.94243139,59.65362350
55.96087050,71.10902659,59.79063036
56.12424957,71.32236278,59.94414666
56.23499142,71.53108919,60.08576329
56.32193396,71.66520154,60.12918096
56.44704117,71.87135506,60.31389365
56.50514580,71.99699828,60.33211835
56.61042024,72.21140652,60.49120926
56.73338336,72.35173671,60.57643654
56.76286449,72.51608062,60.70261578
56.88732847,72.73617067,60.83565609
56.91305746,72.83243997,60.89654803
56.82547170,72.71569468,60.74935678
56.33983705,71.91316467,60.23306175
55.85634648,71.04867067,59.57204117
55.54695540,70.45132933,59.33897942
55.39901372,70.15759005,59.12864494
55.38261149,70.16262864,59.16155660
55.32975986,70.14644082,59.14322470
55.43942967,70.28998714,59.29320326
55.54577616,70.49195969,59.38089623
55.60527444,70.62371355,59.48048885
55.66638079,70.72084048,59.55960549
55.68331904,70.76608062,59.53644940
55.75225129,70.83008148,59.54899228
55.82568611,70.96848199,59.68417667
55.94168096,71.15673242,59.77765866
56.02069039,71.33972985,59.88604202
56.12960978,71.52647942,60.00954117
56.26929674,71.69832762,60.16316467
56.30145798,71.85334477,60.26779588
56.39987136,72.04373928,60.35248714
56.42045455,72.18353345,60.40330189
56.61095626,72.39397513,60.61503002
56.68106775,72.50996998,60.65212264
56.78183962,72.70765437,60.72759434
56.90308748,72.90330189,60.89043739
56.98584906,73.06346484,60.97341338
56.98070326,73.08747856,60.96891081
56.66391509,72.58115352,60.60216552
56.27401372,71.80810463,60.08254717
56.00889794,71.20551029,59.77304889
55.87049743,70.98156089,59.57954545
55.86299314,70.96290738,59.61406518
55.90683962,71.01468696,59.65340909
55.97888079,71.19564751,59.78762864
56.10806175,71.38657804,59.91295026
56.18074614,71.53344768,60.06239280
56.26865352,71.63636364,60.11320755
56.29674099,71.68331904,60.14301029
56.39108062,71.80767581,60.25085763
56.40222985,71.89879931,60.30167238
56.51843911,72.11728130,60.41402230
56.58458405,72.25225129,60.55585334
56.70197256,72.47105489,60.63443396
56.80317324,72.63872213,60.80167238
56.85227273,72.76672384,60.81989708
56.99860635,72.96022727,60.94286021
57.06668096,73.08855060,60.99892796
57.13786449,73.28344768,61.13486278
57.22180532,73.42999571,61.23617067
57.29920669,73.58136792,61.34509005
57.43171098,73.77176244,61.47116209
57.41412950,73.90298027,61.47652230
57.42141938,73.87467839,61.51125643
57.06518010,73.25428816,60.96397942
56.68235420,72.40490995,60.49174528
56.40072899,71.78194683,60.09798456
56.29513293,71.53312607,59.95358062
56.26200686,71.48263293,60.01415094
56.25139365,71.46344340,59.97737993
56.28291166,71.54041595,60.06057033
56.38893654,71.71955403,60.18160377
56.46419383,71.85806175,60.27894511
56.46365780,71.89354631,60.29406089
56.49882075,71.95250858,60.34015866
56.52851630,72.02808748,60.38572041
56.55188679,72.07933105,60.43203259
56.67077616,72.27240566,60.56014151
56.73702830,72.39440395,60.62274871
56.82021870,72.54942110,60.69822041
56.94854202,72.73949400,60.85656089
57.01061321,72.92056175,60.93492710
57.10313036,73.06839623,61.07783019
57.14815609,73.19768439,61.10806175
57.27819468,73.34594768,61.26125643
57.34058748,73.46129931,61.33844340
57.44832762,73.64301029,61.44554031
57.50235849,73.79459691,61.48606346
57.54759863,73.90222985,61.58361921
57.58822899,74.04384648,61.63475557
57.55467410,74.09476844,61.64515437
57.40876930,73.84015866,61.45250858
56.96462264,73.03023156,60.91852487
56.55381647,72.19854202,60.42645798
56.38722127,71.65737564,60.09498285
56.32407804,71.48338336,59.98702830
56.29373928,71.41788165,60.00257290
56.28784305,71.37296312,60.02090480
56.33083190,71.46376501,60.11042024
56.41487993,71.58962264,60.18739280
56.43449828,71.67399228,60.21966123
56.47009005,71.68900086,60.26811750
56.51490137,71.71087050,60.27519297
56.56410806,71.79159520,60.30939108
56.59852058,71.89976415,60.35345197
56.70518868,72.03795026,60.47684391
56.75160806,72.18535592,60.57965266
56.84498285,72.35698971,60.68867925
56.93213979,72.51940395,60.75653945
57.00010720,72.63411235,60.82879503
57.10720412,72.80317324,60.99764151
57.19018010,72.89258148,61.05188679
57.24260292,73.06700257,61.13904374
57.30917667,73.18267581,61.16788165
57.39472556,73.31367925,61.31903945
57.48509863,73.44800600,61.38132504
57.51361492,73.60409520,61.46773156
57.63121784,73.79824185,61.56989708
57.69511149,73.89708405,61.66895369
57.69414666,73.83780017,61.61159949
57.31410806,73.13250429,61.14493997
56.87124786,72.24924957,60.54813465
56.63325472,71.65919811,60.24453259
56.51125643,71.37510720,60.04041595
56.40608919,71.32375643,60.05381647
56.41091338,71.31485849,60.04298885
56.47577187,71.41766724,60.14493997
56.59026587,71.55231561,60.29759863
56.62060463,71.65469554,60.35409520
56.62703688,71.69157376,60.32879503
56.62039022,71.70293739,60.34058748
56.64569039,71.76940395,60.37832333
56.70840480,71.83812178,60.43910806
56.85527444,71.98885077,60.57482847
56.89804889,72.12682247,60.65898370
56.95433105,72.24056604,60.71805317
57.09905660,72.45454545,60.86535163
57.16412950,72.57472127,60.92978130
57.24667667,72.74260292,61.03612779
57.35988422,72.89869211,61.09701973
57.39172384,72.97019726,61.20068611
57.50696827,73.16563036,61.33801458
57.51039880,73.28848628,61.41155660
57.63293310,73.45883362,61.44532590
57.68557033,73.56828902,61.55799743
57.79084477,73.75053602,61.66713122
57.75707547,73.79759863,61.65780446
57.45979846,73.25675386,61.29684820
57.06593053,72.46387221,60.75653945
56.68385506,71.71451544,60.30499571
56.56164237,71.42570755,60.15405232
56.48713551,71.34991424,60.12800172
56.48038165,71.37682247,60.18106775
56.54834906,71.45079331,60.23059605
56.64022298,71.58726415,60.35291595
56.64622642,71.76951115,60.38314751
56.69832762,71.76479417,60.47427101
56.69586192,71.81764580,60.48316895
56.71644511,71.86674528,60.50053602
56.76404374,71.91798885,60.52111921
56.87231990,72.11760292,60.66305746
56.90040738,72.14183105,60.68299743
57.00728988,72.35570326,60.81539451
57.06957547,72.46687393,60.86931818
57.18792882,72.64290309,61.05735420
57.24281732,72.74431818,61.07515009
57.36856775,72.91359348,61.22148370
57.45197256,73.08683533,61.32139794
57.50568182,73.19907804,61.40469554
57.60195111,73.35152230,61.46387221
57.62564322,73.44639794,61.54373928
