R,G,B
70.94650515,70.01018439,62.24045883
71.01951115,70.20004288,62.24185249
71.00289451,70.28505575,62.25804031
71.15523156,70.37135506,62.37114065
71.21451544,70.49388937,62.48359777
71.08297599,70.67324185,62.54373928
71.17420669,70.75739708,62.64140223
71.30649657,70.90276587,62.64418954
71.42013293,71.02047599,62.84659091
71.45293739,71.13196827,62.83222556
71.50643225,71.28366209,62.89579760
71.49807033,71.27229846,62.84884220
71.16798885,70.85816895,62.60066467
70.81271441,70.25246569,62.24195969
70.69103774,69.86878216,62.14065180
70.68760720,69.72512864,62.12478559
70.67238422,69.65716123,62.13057461
70.72673671,69.70636792,62.12875214
70.70336621,69.71558748,62.14611921
70.82783019,69.82933105,62.20411664
70.84766295,69.91520154,62.27540738
70.82000429,69.89268868,62.23531304
70.82536449,69.91541595,62.22523585
70.83919383,69.93396226,62.22512864
70.90962693,70.01897513,62.30156518
70.99313894,70.13464837,62.37221269
71.03698542,70.23852916,62.44521870
71.11181389,70.36738851,62.53741424
71.19007290,70.47223413,62.51854631
71.26211407,70.63882933,62.61674528
71.32139794,70.75343053,62.68310463
70.85495283,70.35495283,62.00396655
70.93524871,70.41659520,62.12414237
70.98188250,70.50396655,62.12768010
71.08940823,70.68889365,62.22920240
71.16680961,70.80789022,62.31496569
71.16037736,70.90973413,62.32568611
71.21397942,71.05295883,62.37714408
71.34777015,71.24957118,62.55510292
71.43342624,71.40040738,62.62210549
71.46451544,71.49774871,62.63840051
71.56185678,71.71215695,62.68857204
71.59584048,71.81775300,62.77058319
71.55681818,71.76072041,62.72191252
71.11460120,71.17999571,62.28462693
70.67388508,70.40308748,61.92002573
70.51629503,69.87199828,61.72362779
70.45400943,69.65898370,61.65919811
70.46419383,69.57161235,61.69532590
70.41873928,69.45454545,61.65094340
70.34819897,69.30445969,61.50150086
70.38443396,69.32975986,61.61706690
70.39933533,69.34894940,61.63025300
70.43878645,69.40040738,61.67978130
70.42034734,69.41605918,61.66477273
70.42270583,69.41134220,61.68942967
70.45711835,69.43138937,61.69532590
70.48059605,69.47866638,61.69157376
70.58136792,69.62918096,61.79127358
70.62017581,69.73745712,61.82386364
70.69982847,69.82825901,61.89086621
70.73917238,69.95379503,61.91777444
70.80531732,70.10956261,61.94168096
70.89965695,70.18996569,62.01114923
70.91895369,70.29524014,62.05574614
71.03687822,70.42024014,62.13400515
71.10334477,70.59541166,62.21419383
71.16402230,70.69832762,62.26951115
71.21558748,70.78291166,62.34616209
71.04631218,70.60720412,62.09991424
70.66605918,69.99388937,61.86438679
70.40823328,69.47898799,61.52894511
70.34026587,69.25385935,61.47169811
70.31378645,69.15405232,61.47116209
70.32439966,69.13593482,61.54202401
70.30906947,69.10581046,61.51232847
70.37714408,69.16509434,61.61535163
70.45240137,69.28023156,61.59240995
70.44554031,69.29931389,61.59862779
70.46944683,69.36267153,61.68106775
70.47030446,69.35409520,61.66541595
70.50246569,69.42206261,61.70379503
70.56464408,69.49860635,61.76897513
70.65887650,69.62585763,61.84262436
70.77540738,69.77605060,61.96966123
70.79641938,69.86717410,61.83222556
70.89611921,70.08394082,62.01189966
70.95111492,70.18310463,62.02487136
71.09766295,70.37231990,62.12253431
71.10409520,70.41498714,62.17184820
71.17924528,70.57289880,62.21933962
71.28409091,70.70776158,62.31839623
71.31014151,70.81528731,62.39225986
71.35613208,71.01629503,62.37521441
71.43760720,71.14644082,62.42281304
71.51436535,71.32225557,62.64172384
71.59573328,71.41477273,62.66412950
71.71483705,71.61620926,62.76865352
71.75471698,71.70819039,62.78044597
71.81582333,71.84326758,62.82225557
71.95132933,72.05724700,62.96976844
71.95840480,72.12307033,62.96119211
71.83158233,72.02905232,62.88647084
71.39890652,71.38818611,62.35881218
71.14054460,70.86159949,62.15834048
71.06893225,70.60195111,62.09187393
71.10237993,70.52326329,62.16477273
71.13293310,70.51393654,62.14536878
71.10045026,70.46623070,62.15126501
71.12875214,70.48767153,62.17656518
71.20786878,70.56936106,62.16863208
71.23466981,70.61138508,62.26811750
71.20647513,70.59476844,62.24163808
71.19725557,70.59198113,62.20626072
71.19511149,70.63550600,62.26415094
71.25032161,70.68063894,62.20486707
71.31957547,70.78548456,62.31185678
71.38614923,70.90566038,62.36728130
71.44564751,71.03612779,62.42870926
71.43481990,71.12199828,62.42838765
71.58008148,71.30006432,62.60087907
71.56121355,71.37596484,62.57086192
71.68353345,71.51650943,62.67388508
71.72159091,71.62575043,62.72545026
71.69607633,71.70572470,62.73188250
71.69972127,71.71816038,62.73231132
71.45958405,71.33908662,62.41520154
71.22512864,70.85270154,62.23584906
71.05638937,70.54416810,62.10870497
71.09026587,70.49399657,62.18203259
71.12564322,70.49742710,62.14601201
71.15759005,70.50578902,62.13743568
71.21333619,70.55574614,62.24421098
71.27079760,70.68074614,62.22620069
71.27090480,70.73102487,62.32193396
71.26479417,70.74635506,62.27101201
71.31475129,70.77530017,62.29288165
71.31978988,70.79234563,62.30435249
71.38239708,70.86910377,62.40512436
71.49871355,71.07697256,62.47705832
71.50396655,71.14483276,62.52905232
71.61213551,71.30767581,62.58233276
71.61545883,71.40490995,62.61202830
71.75975557,71.58737136,62.72352058
71.79373928,71.65951973,62.76865352
71.86674528,71.84165952,62.76683105
71.92056175,71.93642796,62.88647084
71.95368782,72.02251286,62.92838765
72.06625214,72.19060892,63.04652659
72.10881218,72.33201115,63.10173671
72.15405232,72.44650515,63.16605918
72.24388937,72.59959262,63.22073328
72.30231561,72.69146655,63.24785592
72.38046741,72.87810892,63.35881218
72.36149228,72.91487993,63.37264151
72.10999142,72.60227273,63.12264151
71.69832762,71.90801887,62.68910806
71.46955403,71.33983705,62.44596913
71.45186535,71.06507290,62.39719125
71.38207547,70.90051458,62.29931389
71.38143225,70.80295883,62.29245283
71.28076758,70.59916381,62.20293739
71.31968268,70.61042024,62.24013722
71.33361921,70.63636364,62.23799314
71.36192110,70.67903087,62.35420240
71.36695969,70.67313465,62.33265437
71.33876501,70.66487993,62.32783019
71.36213551,70.69596913,62.30424528
71.40823328,70.76565180,62.36856775
71.46880360,70.91262864,62.45272298
71.55038593,71.01050600,62.49892796
71.58469125,71.10055746,62.50235849
71.68717839,71.24807033,62.65823328
71.72491424,71.35077187,62.64965695
71.77862350,71.48402659,62.69736278
71.80821184,71.60538165,62.71773156
71.89879931,71.73820755,62.83233276
71.92270583,71.84080189,62.84573328
72.03827187,72.00160806,62.97051887
72.08983705,72.12071184,63.02208405
71.96237136,71.99539022,62.91112779
71.59680532,71.44243139,62.45872642
71.29995712,70.82783019,62.24914237
71.27026158,70.53441252,62.17334906
71.22384220,70.39901372,62.19618353
71.19350343,70.32236278,62.14547599
71.19361063,70.20990566,62.13979417
71.18964408,70.21730274,62.14654803
71.25857633,70.33426244,62.22041166
71.28612779,70.39247427,62.22180532
71.33576329,70.43524871,62.25514580
71.32407804,70.46301458,62.22566467
71.38647084,70.51640223,62.31035592
71.42549314,70.59980703,62.31357204
71.51554460,70.71472985,62.39011578
71.57718696,70.88336192,62.47084048
71.66627358,71.01275729,62.57943825
71.79502573,71.19425386,62.61771012
71.82129074,71.30328045,62.67870926
71.90544597,71.49635506,62.77915952
71.94822041,71.56936106,62.82686535
72.03966552,71.74592624,62.96676672
72.06710978,71.84176672,62.96054889
72.13732847,72.00503859,63.02304889
72.23048885,72.15909091,63.08769297
72.28462693,72.28119640,63.13947256
72.38121784,72.45111492,63.26050600
72.45057890,72.56893225,63.33286878
72.53837907,72.77530017,63.40823328
72.60741852,72.88786449,63.48842196
72.66766724,72.98327616,63.53902230
72.76061321,73.20979846,63.59916381
72.76693825,73.27422813,63.64429674
72.89590480,73.46322899,63.78505575
72.93021012,73.58329760,63.83565609
72.98188250,73.68235420,63.84208834
72.68642796,73.32579331,63.55949828
72.16359348,72.53344768,63.13207547
72.01404374,72.09659091,62.90962693
71.97770154,71.81946827,62.81646655
71.99817753,71.78419811,62.85988422
71.99045883,71.72909520,62.85323756
71.99174528,71.68857204,62.83222556
72.01340051,71.70186535,62.87617925
72.07590051,71.79223842,62.91852487
72.08533448,71.83490566,62.93996569
72.04309605,71.80853345,62.90373070
72.03987993,71.80102916,62.90523156
72.06796741,71.85355918,62.92345626
72.11835334,71.95540309,62.97169811
72.13700686,72.03194683,63.03494854
72.25889794,72.22137650,63.10495283
72.36492281,72.36813894,63.16445111
72.38518439,72.47309177,63.22973842
72.43085334,72.60280875,63.34230274
72.43289022,72.69403945,63.26629503
72.53709262,72.84069468,63.42431389
72.60945540,72.94457547,63.47352058
72.66144940,73.04909949,63.57482847
72.73702830,73.23316895,63.64804889
72.78098199,73.30971269,63.68149657
72.73681389,73.33994425,63.65641081
72.46430103,72.92034734,63.35152230
72.19382504,72.42238422,63.10999142
72.03719983,72.09787736,62.96494425
72.04513293,71.99710549,62.92163379
72.08415523,72.01254288,62.99131647
72.10623928,72.03634220,62.96065609
72.15887650,72.11127787,63.03259005
72.20283019,72.18696398,63.03580617
72.22352058,72.24817753,63.11653087
72.23810034,72.27583619,63.12510720
72.22341338,72.24549743,63.10698971
72.22973842,72.26125643,63.11417238
72.23745712,72.34015866,63.13132504
72.28644940,72.45090051,63.21054889
72.34155232,72.54545455,63.24442539
72.44532590,72.72126930,63.31496569
72.51779588,72.86835334,63.44725557
72.50975557,72.90984134,63.40019297
72.57632933,73.05917667,63.51243568
72.63443396,73.14772727,63.58404803
72.69296741,73.24185249,63.63293310
72.74485420,73.34691252,63.65544597
72.82911664,73.52465695,63.71719554
72.89033019,73.66670240,63.80049314
72.89579760,73.72148370,63.83897942
72.97834477,73.85548885,63.86685249
73.00278731,73.97277015,63.96462264
73.12017581,74.12703688,63.99195969
73.17367067,74.23456261,64.08940823
73.12521441,74.21740995,64.06260720
72.75739708,73.76747427,63.71408662
72.39569039,73.10409520,63.35430961
72.22041166,72.70626072,63.18267581
72.16938250,72.49699828,63.11620926
72.21408662,72.52154803,63.17184820
72.20390223,72.50707547,63.13722127
72.19146655,72.46762436,63.09648370
72.21376501,72.50964837,63.20497427
72.24238851,72.54792024,63.19221698
72.26082762,72.55606775,63.17785163
72.22330617,72.52004717,63.17935249
72.25096484,72.53719983,63.19200257
72.28848628,72.56828902,63.24067324
72.33683533,72.68010292,63.25407376
72.39665523,72.75493139,63.31539451
72.42881647,72.85098628,63.39429674
72.52551458,73.00836192,63.46976844
72.52347770,73.08801458,63.47695111
72.59240995,73.20668954,63.50364494
72.61974700,73.27476415,63.58565609
72.68642796,73.41262864,63.66434391
72.78719983,73.52862350,63.75289451
72.76983276,73.55949828,63.70508148
72.58844340,73.33008148,63.56250000
72.16123499,72.70754717,63.13207547
71.92549314,72.19929245,62.90019297
71.84262436,71.91059177,62.79352487
71.83629931,71.81378645,62.73016724
71.82493568,71.75889794,62.76833190
71.81282161,71.67795883,62.71998285
71.86513722,71.72941681,62.80960549
71.90072899,71.78044597,62.78773585
71.91691681,71.82214837,62.84123070
71.87392796,71.80896226,62.82761578
71.93331904,71.82675815,62.87199828
71.91723842,71.84819897,62.86813894
71.96397942,71.92602916,62.90137221
72.08329760,72.06421527,63.00846913
72.08972985,72.19093053,63.00675386
72.20497427,72.35205832,63.12671527
72.24635506,72.45797599,63.16895369
72.37114065,72.63507719,63.27036878
72.37156947,72.71312178,63.31518010
72.39386792,72.78580617,63.32825901
72.47427101,72.94210978,63.43803602
72.51039880,73.03762864,63.44800600
72.59980703,73.19607633,63.56185678
72.62060463,73.27519297,63.56850343
72.75621784,73.47941681,63.71097770
72.78055317,73.58458405,63.67141938
72.93782161,73.76908233,63.87778731
72.97169811,73.89150943,63.93610635
72.97995283,73.98917238,63.90726844
73.09487564,74.13711407,64.04899228
73.12800172,74.23885077,64.02851630
73.16605918,74.36974700,64.02262007
73.10248714,74.30896226,64.00707547
72.61535163,73.59198113,63.52015437
72.14976415,72.75546741,63.18621355
71.87414237,72.18567753,62.83726415
71.85559605,71.93106775,62.78612779
71.81014151,71.78119640,62.75139365
71.79363208,71.65662521,62.72695111
71.77765866,71.55724700,62.65759005
71.79116638,71.56217839,62.64408233
71.78998714,71.57965266,62.65619640
71.74624786,71.54534734,62.65469554
71.76072041,71.54609777,62.63700686
71.72855918,71.51929674,62.64987136
71.75986278,71.57182676,62.66380789
71.81185678,71.63539880,62.75460978
71.90233705,71.80864065,62.80027873
71.96783877,71.92624357,62.84305317
71.97234134,71.98584906,62.89665523
72.12039022,72.18664237,63.02347770
72.14729846,72.23520583,63.06024871
72.24785592,72.40630360,63.15351630
72.25664666,72.50064322,63.19489708
72.36170669,72.65716123,63.28044597
72.38829331,72.75493139,63.31089194
72.46612350,72.90158662,63.41059177
72.55027873,73.04620497,63.48295455
72.57171955,73.10731132,63.48702830
72.42324185,72.95197256,63.34905660
71.92045455,72.12971698,62.85463122
71.58640652,71.46976844,62.53259005
71.44178816,71.04363208,62.35452401
71.44682676,70.93610635,62.36492281
71.45679674,70.90984134,62.39418954
71.42860206,70.83662093,62.36234991
71.53269726,70.93128216,62.44843482
71.54256003,70.97802316,62.45701115
71.60388079,71.08394082,62.54363208
71.57150515,71.06292882,62.52733705
71.56303602,71.06239280,62.51372213
71.61256432,71.13078902,62.52272727
71.64322470,71.19210978,62.56410806
71.80703259,71.42452830,62.70497427
71.81882504,71.48820755,62.74056604
71.89569039,71.63003859,62.78226844
71.96322899,71.84637650,62.88068182
72.01608062,71.90480274,62.92281304
72.10902659,72.12639365,63.01447256
72.20400943,72.25846913,63.08544168
72.27186964,72.39644082,63.11106346
72.34487564,72.55199400,63.21773156
72.42313465,72.68900086,63.34852058
72.49067324,72.79706261,63.42999571
72.58179674,72.98059605,63.47909520
72.68782161,73.12671527,63.56582333
72.75611063,73.31057033,63.67720840
72.83533448,73.46140652,63.76629503
72.89837050,73.61921098,63.80060034
72.93428388,73.71151372,63.80906947
73.03559177,73.89751286,63.94746998
73.10548885,74.01586621,63.92066895
73.14719125,74.08972985,64.04363208
72.73895798,73.61931818,63.65919811
72.25075043,72.76618782,63.23638508
71.90544597,72.10055746,62.80274443
71.80660377,71.77015437,62.71204974
71.79524014,71.67238422,62.72641509
71.82118353,71.63529160,62.75085763
71.88379074,71.65480274,62.73756432
71.90909091,71.72941681,62.76286449
71.95079331,71.83651372,62.86931818
71.92624357,71.81968268,62.82054031
71.86063465,71.78473413,62.77594340
71.83683533,71.75021441,62.76522298
71.84519726,71.77444254,62.79716981
71.96204974,71.88893654,62.87607204
71.97705832,71.94918525,62.86706690
72.08608491,72.10966981,62.96151372
72.16745283,72.27594340,63.07182676
72.20808319,72.37768010,63.13304031
72.27830189,72.54288165,63.23713551
72.30445969,72.62993139,63.25750429
72.38411235,72.73402659,63.31593053
72.40501715,72.83640652,63.35956261
72.50107204,73.00728988,63.44210978
72.57729417,73.11738851,63.46430103
72.55392367,73.16112779,63.50139365
72.30928388,72.82986707,63.21773156
71.81646655,72.05531732,62.80960549
71.57815180,71.51425815,62.59380360
71.47780875,71.15791166,62.40469554
71.49860635,71.11953259,62.42913808
71.50836192,71.13121784,62.42259863
71.53580617,71.19039451,62.43138937
71.66595197,71.37650086,62.61063465
71.67731561,71.44168096,62.61963979
71.64483276,71.46172813,62.58972985
71.61052744,71.42935249,62.50911235
71.65147942,71.48681389,62.60237993
71.68696398,71.52122642,62.64472556
71.78537736,71.68289022,62.74978559
71.85806175,71.79524014,62.81282161
71.89354631,71.91756003,62.82665094
72.01479417,72.13271870,62.98713551
72.06421527,72.21966123,63.02840909
72.14912093,72.40984134,63.15962693
72.20250858,72.52433533,63.18321184
72.24914237,72.69511149,63.27551458
72.31292882,72.79470412,63.27669383
72.36599485,72.93696398,63.38507719
72.47759434,73.08286878,63.47845197
72.50139365,73.16198542,63.47695111
72.63872213,73.35377358,63.58533448
72.65834048,73.44393225,63.62725129
72.78119640,73.63475557,63.72073328
72.82257719,73.74753431,63.81014151
72.89997856,73.91219983,63.86888937
72.92013293,73.93192539,63.86588765
72.40951973,73.28344768,63.38057461
71.80167238,72.29802744,62.87457118
71.40823328,71.47748714,62.44918525
71.27154803,71.05370926,62.26918954
71.19929245,70.85623928,62.20358062
71.21355060,70.79845626,62.21655232
71.15630360,70.67174099,62.14837050
71.14976415,70.64954974,62.16927530
71.20829760,70.69307461,62.21537307
71.18171098,70.69993568,62.19800600
71.16981132,70.70904803,62.17838765
71.11127787,70.64708405,62.16445111
71.17356346,70.67699400,62.21108491
71.22469983,70.78001715,62.26908233
71.28795026,70.86084906,62.27229846
71.38003859,71.05370926,62.44414666
71.48595626,71.21172813,62.48745712
71.55285163,71.35645369,62.65748285
71.56560892,71.45497427,62.57397084
71.69629074,71.65362350,62.69800600
71.70572470,71.77197684,62.69393225
71.74614065,71.84605489,62.76843911
71.84819897,71.98177530,62.82482847
71.88464837,72.06089194,62.87542882
71.97116209,72.22201973,62.98874357
72.06936106,72.38582762,63.13346913
72.10752573,72.45915523,63.11095626
71.77894511,72.08276158,62.84155232
71.26693825,71.19725557,62.27508576
70.89837050,70.40287307,61.94296741
70.69468268,69.93181818,61.76672384
70.62853774,69.76940395,61.71644511
70.59584048,69.72019726,61.71247856
70.57054031,69.66380789,61.67259863
70.61674528,69.69564751,61.71901801
70.65180103,69.74506861,61.75750429
70.68439108,69.82096913,61.75943396
70.66831046,69.82032590,61.78044597
70.71698113,69.87800172,61.83126072
70.74860635,69.91134220,61.81014151
70.80553173,69.99335334,61.90694683
70.92710120,70.15973413,62.02058319
70.96483705,70.28795026,62.01050600
71.09841338,70.45304460,62.15030017
71.15019297,70.59873499,62.16027015
71.26479417,70.77251286,62.32997427
71.29406089,70.87146226,62.28205403
71.41102058,71.01779588,62.36256432
71.48477702,71.14665523,62.45368782
71.51533019,71.23852916,62.51061321
71.61095626,71.43857204,62.59208834
71.61513722,71.55767581,62.59562607
71.75964837,71.73048885,62.73584906
71.80735420,71.84852058,62.79684820
71.89536878,72.01522298,62.87156947
71.96419383,72.13872213,62.94403945
72.04620497,72.26275729,63.01554460
72.15265866,72.46462264,63.11513722
72.19210978,72.55638937,63.15930532
72.14140223,72.54063036,63.13689966
71.58694254,71.79234563,62.58265437
71.06518010,70.81453688,62.15094340
70.78827187,70.18557033,61.81550172
70.67560034,69.93803602,61.67495712
70.67334906,69.87446398,61.70122213
70.60806175,69.78430532,61.71140652
70.65941252,69.82536449,61.76361492
70.70197256,69.88829331,61.81046312
70.74303173,69.94436106,61.77990995
70.72748714,69.93117496,61.81732419
70.70207976,69.91734563,61.76618782
70.71880360,69.90876930,61.82772298
70.72062607,69.92431389,61.82182676
70.81453688,70.07504288,61.94403945
70.86931818,70.15941252,61.91884648
71.01179245,70.35227273,62.01586621
71.05413808,70.43192539,62.00739708
71.16702401,70.61470840,62.16745283
71.23852916,70.73402659,62.25782590
71.22823756,70.82322041,62.27883791
71.33158233,70.99689108,62.30478130
71.43010292,71.12564322,62.38915094
71.40844768,71.24271012,62.38078902
71.54813465,71.38840051,62.51039880
71.41466552,71.27701544,62.41230703
71.01243568,70.68181818,62.06989708
70.59873499,69.88604202,61.64912093
70.37682247,69.37403516,61.49539022
70.28966552,69.22448542,61.48906518
70.24957118,69.18546312,61.40630360
70.22727273,69.19511149,61.42281304
70.31164237,69.28162521,61.47330617
70.45797599,69.46891081,61.59326758
70.45207976,69.48960120,61.61267153
70.41370069,69.46258576,61.54684820
70.41434391,69.46837479,61.59744854
70.41337907,69.47298456,61.56903945
70.49056604,69.57632933,61.64472556
70.60527444,69.71312178,61.71119211
70.74656947,69.90351630,61.80874786
70.80874786,70.05381647,61.82954545
70.86835334,70.19125214,61.88207547
70.91991852,70.30692539,61.90448113
70.97502144,70.43707118,61.99539022
71.11760292,70.61953259,62.07322041
71.17206261,70.70336621,62.14997856
71.17034734,70.79920669,62.15126501
71.26254288,70.96944683,62.26725986
71.33179674,71.10966981,62.28398370
71.41295026,71.20454545,62.41766724
71.07386364,70.76382933,62.06485849
70.55896226,69.89665523,61.66530875
70.14322470,69.16723842,61.33447684
69.88239708,68.72437822,61.13389794
69.86781732,68.65255146,61.09637650
69.82997427,68.50214408,61.01179245
69.80756861,68.48509863,61.03441252
69.84015866,68.55499571,61.07836621
69.95154374,68.71440823,61.20647513
69.96633791,68.78559177,61.22641509
69.97770154,68.82332762,61.20819039
69.97813036,68.83876501,61.23477702
70.02004717,68.88175386,61.24496141
70.07740137,68.97770154,61.29481132
70.16895369,69.11020583,61.33640652
70.31614494,69.36052744,61.55521012
70.42238422,69.48885077,61.54566895
70.53119640,69.65105060,61.71966123
70.60045026,69.83608491,61.68900086
70.65566038,69.89729846,61.74678388
70.79202401,70.10634648,61.89193825
70.84991424,70.21805317,61.92388508
70.90791166,70.35023585,61.98724271
71.02058319,70.53537736,62.10098628
71.08436964,70.65705403,62.08608491
71.17195540,70.82654374,62.19939966
71.21344340,70.95122213,62.23295455
71.31775300,71.14472556,62.35591767
71.36974700,71.25718268,62.43085334
71.46665952,71.43171098,62.49581904
71.54641938,71.56507290,62.51918954
71.64376072,71.75353774,62.69007290
71.61824614,71.75139365,62.64440395
71.05177959,71.01254288,62.10452401
70.46955403,69.93096055,61.57332762
70.07021870,69.12703688,61.26211407
69.90501715,68.79588336,61.12178388
69.82161235,68.62371355,61.06668096
69.75546741,68.49496141,61.03484134
69.71258576,68.38647084,61.01747427
69.72405660,68.40030017,60.97469983
69.80778302,68.54684820,61.06485849
69.80135077,68.58243997,61.03055317
69.80842624,68.63111063,61.11996141
69.85934820,68.70776158,61.13743568
69.88282590,68.75096484,61.17377787
70.01886792,68.89729846,61.27144082
70.08758576,69.03441252,61.38003859
70.22201973,69.23617067,61.46194254
70.34412521,69.37242710,61.55596055
70.37800172,69.49807033,61.60527444
70.51865352,69.69146655,61.68696398
70.56882504,69.81132075,61.71483705
70.67656518,70.00310892,61.82257719
70.71151372,70.08930103,61.77647942
70.88121784,70.32139794,61.90887650
70.95540309,70.45540309,62.00600343
71.00278731,70.57697256,62.03087479
71.13336192,70.77615780,62.21462264
71.17066895,70.87071184,62.24249571
71.24871355,71.01650943,62.29867067
71.33726415,71.17345626,62.36749571
71.37650086,71.30424528,62.39108062
71.52562178,71.53033877,62.55799743
71.52519297,71.57086192,62.56807461
71.05638937,71.03023156,62.18310463
70.49517581,70.00075043,61.59337479
70.14740566,69.25825472,61.30049314
69.92174099,68.80403087,61.15951973
69.85098628,68.67688679,61.04395369
69.82150515,68.60795455,61.03591338
69.75117925,68.51811750,61.03012436
69.83040309,68.61149228,61.11706690
69.87692967,68.69339623,61.14987136
69.94521870,68.78441252,61.19586192
69.89676244,68.80885506,61.21515866
69.95979846,68.83544168,61.23059605
69.99849914,68.90373070,61.19232419
70.07590051,69.02101201,61.26715266
70.22051887,69.21065609,61.46344340
70.26640223,69.32021870,61.50053602
70.42388508,69.53130360,61.61192110
70.48091767,69.68439108,61.67795883
70.50546741,69.77840909,61.68042453
70.64268868,70.00996998,61.79020154
70.71044168,70.09744854,61.85838336
70.85334477,70.28108919,61.95883362
70.93278302,70.44671955,62.02433533
70.96880360,70.52926672,62.02090480
71.00300172,70.60613208,62.03666381
70.67227702,70.21472985,61.79148799
70.19189537,69.43224700,61.36749571
69.81946827,68.75085763,60.98198971
69.67495712,68.40137221,60.92045455
69.65062178,68.36524443,60.88689966
69.60420240,68.33211835,60.94232419
69.67388508,68.43889365,60.99292453
69.84069468,68.63679245,61.10334477
69.88186106,68.76243568,61.11406518
69.92099057,68.82064751,61.17249142
69.88625643,68.79834906,61.11460120
69.93589194,68.85184391,61.17560034
69.97620069,68.90351630,61.26843911
70.11149228,69.08383362,61.31496569
70.22802316,69.26747427,61.50718268
70.34144511,69.45679674,61.56871784
70.49228130,69.66037736,61.64708405
70.52840909,69.77883791,61.64097341
70.65716123,69.96783877,61.76329331
70.75921955,70.11320755,61.76886792
70.79984991,70.25696827,61.83822899
70.86867496,70.38304031,61.95658233
70.96676672,70.57547170,61.98091767
71.07214837,70.77197684,62.11288593
71.10774014,70.89311750,62.14418954
71.25300172,71.09498285,62.27294168
71.31485849,71.24388937,62.34037307
71.41348628,71.41262864,62.47051887
71.48445540,71.57943825,62.47587907
71.58994425,71.75546741,62.62853774
71.66155660,71.90748285,62.66970412
71.60870497,71.92002573,62.63550600
71.08565609,71.18085334,62.15169383
70.44714837,70.06250000,61.52712264
70.04524014,69.25964837,61.17667238
69.84509005,68.88904374,61.06207118
69.75450257,68.70283019,61.04738422
69.70583190,68.59584048,60.94403945
69.65598199,68.52219125,60.82472127
69.75568182,68.63346913,61.04620497
69.82997427,68.74807033,61.09498285
69.89676244,68.84251715,61.12660806
69.86449400,68.84262436,61.15137221
69.89536878,68.89065180,61.14987136
70.00042882,69.03066038,61.25514580
70.08897942,69.15222985,61.26565180
70.20583190,69.32718696,61.38036021
70.33018868,69.49463979,61.44811321
70.44253859,69.71826758,61.61299314
70.55188679,69.88700686,61.68053173
70.67292024,70.09916381,61.71365780
70.75428816,70.25836192,61.89172384
70.82493568,70.38153945,61.95036449
70.93310463,70.57718696,62.05424528
70.94779160,70.67463551,61.98617067
71.10570326,70.88550600,62.14815609
71.15662521,71.00310892,62.18235420
71.29684820,71.24667667,62.35259434
71.24946398,71.23917238,62.29792024
70.72716552,70.52497856,61.78183962
70.17452830,69.53987993,61.38765009
69.76254288,68.81335763,61.02176244
69.65737564,68.53987993,60.89622642
69.64987136,68.48777873,60.95132933
69.65651801,68.47791595,60.92645798
69.62510720,68.47866638,60.93449828
69.74271012,68.61513722,61.03216123
69.87189108,68.82021870,61.16798885
69.86020583,68.89837050,61.12950257
69.93053173,68.97491424,61.20561750
69.95636792,69.00332333,61.19736278
70.06786021,69.13539880,61.29513293
70.15083619,69.25225129,61.35816895
70.31078473,69.50332333,61.51704545
70.45325901,69.71397942,61.61320755
70.49421098,69.86213551,61.61856775
70.64150943,70.12993139,61.79545455
70.74303173,70.26833190,61.87167667
70.87735849,70.51565180,61.96462264
70.93814322,70.63346913,62.02111921
71.03312607,70.77883791,62.10173671
71.11899657,70.95626072,62.17753002
71.16573756,71.08061750,62.22620069
71.26254288,71.25075043,62.31078473
71.40844768,71.49592624,62.44811321
71.52615780,71.70797599,62.56410806
71.61835334,71.87821612,62.65222985
71.72041166,72.08233276,62.76136364
71.81035592,72.25825472,62.84637650
71.85216552,72.36588765,62.89397513
71.96462264,72.56775300,62.99292453
72.03494854,72.70411664,63.08662093
72.16295026,72.94532590,63.23499142
72.17324185,73.03752144,63.24292453
71.77744425,72.50986278,62.83747856
71.01801029,71.37692967,62.18353345
70.52819468,70.32364923,61.68321184
70.30703259,69.77701544,61.45990566
70.27304889,69.59830617,61.44607633
70.24967839,69.52669383,61.46129931
70.25868353,69.51425815,61.40769726
70.27347770,69.57536449,61.45100772
70.37457118,69.72620069,61.53923671
70.35216552,69.75868353,61.50310892
70.34176672,69.74721269,61.50964837
70.34015866,69.69436106,61.49110206
70.35591767,69.75771870,61.46783877
70.44950686,69.88261149,61.58865780
70.56668096,70.01200686,61.71312178
70.66734563,70.20122213,61.77969554
70.80027873,70.42034734,61.86610206
70.94060892,70.65030017,62.02530017
70.96623070,70.78098199,62.08479846
71.01018439,70.89569039,62.09616209
71.11374357,71.04320326,62.13325472
71.17249142,71.18213979,62.24410377
71.29191681,71.35366638,62.39033019
71.35806175,71.48692110,62.41788165
71.42313465,71.69243139,62.51490137
71.49528302,71.81496569,62.55317324
71.37307033,71.69468268,62.45668954
70.83383362,70.92538593,61.94661235
70.33340480,69.92195540,61.50621784
70.10098628,69.42324185,61.32547170
69.98477702,69.16380789,61.25257290
70.01361492,69.17249142,61.21537307
70.05381647,69.20711835,61.21033448
70.23081046,69.45936964,61.42292024
70.29095197,69.59005146,61.44446827
70.34648370,69.71312178,61.48927959
70.28966552,69.74528302,61.49957118
70.27358491,69.65415952,61.45325901
70.29738422,69.68589194,61.44725557
70.38475557,69.77840909,61.53419811
70.49560463,69.97244854,61.62446398
70.60388079,70.16884648,61.70829760
70.75042882,70.40308748,61.86320755
70.85827616,70.61213551,61.91316467
70.92785163,70.75246569,61.98316895
71.06378645,70.96172813,62.16756003
71.09155232,71.05295883,62.13593482
71.22319897,71.27937393,62.26179245
71.24957118,71.39086621,62.34541166
71.39225986,71.60623928,62.48445540
71.45025729,71.76179245,62.52229846
71.51361492,71.87553602,62.57043310
71.66187822,72.08726415,62.73220412
71.56432247,72.04566895,62.63336192
70.97973842,71.19050172,62.06635935
70.30253002,70.04438250,61.50707547
69.96762436,69.23091767,61.13014580
69.76747427,68.88132504,61.00010720
69.70636792,68.72759434,60.99796312
69.71901801,68.75268010,61.06528731
69.71869640,68.77036878,61.00771870
69.82986707,68.91520154,61.12853774
69.93353345,69.07590051,61.20368782
69.96719554,69.10377358,61.21140652
69.97416381,69.12274871,61.21065609
69.96097770,69.12392796,61.19060892
70.06346484,69.26415094,61.28001715
70.08222556,69.37918096,61.35237993
70.24131647,69.58994425,61.45229417
70.44082333,69.84519726,61.60849057
70.47298456,69.96848199,61.62971698
70.63743568,70.22705832,61.78580617
70.68010292,70.37371355,61.78923671
70.84948542,70.59326758,61.97834477
70.92527873,70.74860635,62.01340051
70.99131647,70.90748285,62.10559605
71.08822899,71.10216552,62.18128216
71.14108062,71.20004288,62.23113208
71.28162521,71.47373499,62.37124786
71.37918096,71.62982419,62.45958405
71.50246569,71.81807461,62.53805746
71.55499571,71.99603345,62.66605918
71.64826329,72.13582762,62.71472985
71.79888508,72.35120069,62.86192110
71.81646655,72.47384220,62.89451115
71.92538593,72.64987136,62.99742710
71.96580189,72.77497856,62.98767153
72.12457118,72.99828473,63.18782161
72.03987993,72.97169811,63.10849057
71.34734134,72.06475129,62.46419383
70.57547170,70.73349057,61.78044597
70.04363208,69.61417238,61.22695111
69.81132075,69.11299314,61.03151801
69.76072041,68.93567753,60.97598628
69.70529588,68.86374357,60.98681389
69.65801887,68.78666381,60.96226415
69.70057890,68.80092196,61.00546741
69.78419811,68.92635077,61.06678816
69.76340051,68.96194254,61.02969554
69.79534734,69.01061321,61.07707976
69.82418525,69.02487136,61.11170669
69.91627358,69.10280875,61.19693396
70.03912950,69.27497856,61.30521012
70.10355918,69.40951973,61.35656089
70.26222127,69.63186106,61.47555746
70.37660806,69.85388079,61.58222556
70.48810034,70.05585334,61.63389794
70.61234991,70.24978559,61.67860206
70.71226415,70.46204974,61.83361921
70.79030875,70.62071184,61.92152659
70.84187393,70.75932676,61.95829760
70.90630360,70.94918525,62.04781304
71.02808748,71.13100343,62.16723842
71.15180103,71.33404803,62.28237564
71.25493139,71.49185249,62.36363636
71.34401801,71.69028731,62.43792882
71.43717839,71.86663808,62.52765866
71.50546741,71.99388937,62.61202830
71.63143225,72.21397942,62.76093482
71.69307461,72.37424957,62.86824614
71.85259434,72.61009863,62.95057890
71.72480703,72.49367496,62.83651372
71.00782590,71.55049314,62.19671955
70.33597770,70.27229846,61.54588336
69.87939537,69.42206261,61.14183105
69.73081046,68.98810034,60.99839194
69.65855489,68.82236278,60.95315180
69.69629074,68.86781732,61.00418096
69.67988851,68.86963979,61.01029160
69.77583619,69.02926672,61.10774014
69.83780017,69.13175386,61.11695969
69.85398799,69.18289022,61.12414237
69.82590051,69.16659520,61.12307033
69.82922384,69.18750000,61.19071612
69.85077187,69.21976844,61.12114065
69.94039451,69.35441681,61.14879931
70.10698971,69.58383362,61.33254717
70.20090051,69.75343053,61.47191252
70.33769297,69.95540309,61.53837907
70.49485420,70.15801887,61.66102058
70.64022298,70.42045455,61.79674099
70.78301887,70.68503431,61.93460549
70.76790309,70.78505575,61.91412950
70.90930532,71.01286449,62.07997427
70.98006003,71.14150943,62.10999142
71.10398799,71.35870497,62.23520583
71.10741852,71.43567753,62.26886792
70.71944683,70.95636792,61.90255146
70.11095626,69.89483276,61.30263722
69.58608491,68.92184820,60.87017581
69.36299314,68.48777873,60.67174099
69.27744425,68.34305317,60.67302744
69.29363208,68.36460120,60.70936964
69.35966981,68.47566467,60.79834906
69.52358491,68.72705832,60.87092624
69.60666810,68.88389794,60.96065609
69.59744854,68.94328902,60.95743997
69.58651372,68.92377787,60.94457547
69.58136792,68.92270583,60.89719125
69.66016295,69.02272727,61.01736707
69.74635506,69.18439108,61.07161235
69.84862779,69.31496569,61.18674957
70.00117925,69.57750858,61.26618782
70.09959262,69.78312607,61.35195111
70.23070326,69.99935678,61.43374786
70.31228559,70.20765437,61.51232847
70.42442110,70.45315180,61.64890652
70.48574185,70.56357204,61.77454974
70.62671527,70.77530017,61.88207547
70.69950686,70.92506432,61.89804889
70.77733705,71.03312607,61.95229417
70.86942539,71.22555746,62.09562607
70.98584906,71.41016295,62.20647513
71.09701973,71.63668525,62.28569897
71.14719125,71.78098199,62.35388079
71.30017153,71.99078045,62.51265009
71.43814322,72.18299743,62.62853774
71.45604631,72.33640652,62.65458834
71.35623928,72.23274014,62.55413808
70.52219125,71.12210549,61.82429245
69.77540738,69.77176244,61.13647084
69.25557461,68.72277015,60.69339623
69.03376930,68.25782590,60.57407804
68.91316467,68.05338765,60.38507719
68.89418954,68.04406089,60.40233705
68.88529160,68.04073756,60.42881647
68.92988851,68.07204117,60.39987136
69.04213122,68.22223413,60.50718268
69.05864065,68.27347770,60.57064751
69.08222556,68.29684820,60.58608491
69.07214837,68.30992710,60.57472127
69.07515009,68.36888937,60.58672813
69.23531304,68.56828902,60.67870926
69.30574614,68.69725557,60.74421098
69.49496141,68.98123928,60.93021012
69.65415952,69.22298456,60.98456261
69.78527015,69.47866638,61.13732847
69.91766724,69.68396226,61.24807033
70.02111921,69.87746569,61.31014151
70.11910377,70.06936106,61.48788593
70.17517153,70.23006003,61.47727273
70.28334048,70.43428388,61.59144511
70.37757290,70.59176672,61.69039451
70.52830189,70.81625214,61.77208405
70.63614923,71.03130360,61.90222985
70.60345197,71.06121355,61.90683962
70.04556175,70.31185678,61.34809177
69.28376930,69.07879503,60.69093053
68.80445969,68.16059177,60.33683533
68.54566895,67.63400515,60.08704974
68.53044597,67.56603774,60.06196398
68.48488422,67.50117925,60.09187393
68.50643225,67.52915952,60.08662093
68.61599485,67.66530875,60.19939966
68.73156089,67.83061750,60.30188679
68.76275729,67.91520154,60.27090480
68.72244854,67.93385506,60.24431818
68.71719554,67.94918525,60.28194683
68.76125643,67.98466981,60.30456690
68.86020583,68.10098628,60.41252144
69.02519297,68.31121355,60.49924957
69.13850772,68.57182676,60.61427959
69.21162093,68.77401372,60.64301029
69.36738851,68.96837479,60.76382933
69.49228130,69.20926244,60.93224700
69.57021870,69.39311750,61.04191681
69.64912093,69.54834906,61.06314322
69.76865352,69.75964837,61.18117496
69.82729417,69.87768010,61.19693396
69.96923242,70.08930103,61.37467839
70.04534734,70.23938679,61.41756003
70.12703688,70.41434391,61.43835763
70.27294168,70.65201544,61.62800172
70.35162950,70.80274443,61.68481990
70.46440823,71.00771870,61.77594340
70.56518010,71.18160377,61.90587479
70.67527873,71.39804889,62.03655660
70.77219125,71.58436964,62.10087907
70.85506003,71.69704117,62.18803602
70.95433105,71.93374786,62.26629503
71.06164237,72.07107633,62.36996141
70.99946398,72.08136792,62.32665094
70.25439537,71.09616209,61.65190823
69.48231132,69.75932676,60.98252573
68.93814322,68.65255146,60.48016724
68.75032161,68.16498714,60.22973842
68.70486707,68.03098199,60.20743997
68.67356346,67.98166810,60.24560463
68.70915523,68.01961835,60.27154803
68.76490137,68.13904374,60.34444683
68.87231990,68.33651372,60.46601630
68.83383362,68.29459691,60.39279588
68.82214837,68.26104202,60.35430961
68.77186964,68.19596913,60.35656089
68.79684820,68.23531304,60.34358919
68.91670240,68.40212264,60.44864923
69.02090480,68.55456690,60.49410377
69.15641081,68.79320326,60.59187393
69.24056604,68.94361063,60.71848199
69.40158662,69.18331904,60.82847341
69.50289451,69.35409520,60.92099057
69.55027873,69.49496141,60.96880360
69.67903087,69.70540309,61.05231561
69.71312178,69.81174957,61.12993139
69.80413808,69.99324614,61.22695111
69.90844768,70.14686964,61.30360206
70.02208405,70.32954545,61.38250429
70.02765866,70.42045455,61.40437393
69.59777015,69.86320755,61.01050600
68.95132933,68.73520583,60.44018010
68.38689966,67.75268010,59.92249142
68.19746998,67.31024871,59.76650943
68.15673242,67.21783877,59.77830189
68.20829760,67.24067324,59.83415523
68.27701544,67.36234991,59.91445111
68.45325901,67.62006861,60.00643225
68.57214837,67.83351201,60.16391509
68.53955832,67.83158233,60.11117067
68.55789022,67.83469125,60.08897942
68.49528302,67.76307890,60.01801029
68.55596055,67.85484563,60.06732419
68.71912521,68.03087479,60.27658662
68.84048027,68.22834477,60.33812178
68.95786878,68.46537307,60.46580189
69.01490137,68.67892367,60.43128216
69.16316467,68.92238422,60.64922813
69.22759434,69.06142796,60.70250858
69.38775729,69.28848628,60.83158233
69.42913808,69.39912093,60.81978988
69.54481132,69.61663808,60.94982847
69.63175386,69.74517581,60.99689108
69.71483705,69.91295026,61.11063465
69.80628216,70.06314322,61.20894082
69.88486278,70.19018010,61.23842196
70.00257290,70.41595197,61.36942539
70.08469125,70.57075472,61.48306175
70.22223413,70.78419811,61.60945540
70.30081475,70.95540309,61.67216981
69.99367496,70.62789451,61.33758576
69.16530875,69.38164666,60.62521441
68.43964408,67.96794597,59.99924957
67.98542024,67.11771012,59.59476844
67.79073756,66.73670669,59.44961407
67.76318611,66.68364065,59.41734563
67.73520583,66.66380789,59.40330189
67.69039451,66.62928816,59.37221269
67.80467410,66.79309605,59.56946827
67.89826329,66.90962693,59.61503002
67.96194254,67.00310892,59.63068182
67.95207976,67.00396655,59.62639365
67.98059605,67.03677101,59.63368353
68.08479846,67.15448113,59.72952401
68.15105060,67.25932676,59.75375214
68.34112350,67.50000000,59.99828473
68.44382504,67.68138937,59.98413379
68.53548456,67.96129931,60.09251715
68.71655232,68.15587479,60.24206690
68.77626501,68.30263722,60.30821184
68.89912093,68.47673671,60.39847770
68.99807033,68.62049743,60.44811321
69.06657376,68.82450686,60.56571612
69.20743997,69.01661664,60.72973842
69.24153087,69.12296312,60.72523585
69.37039022,69.33629931,60.89225986
69.43321184,69.49367496,60.87081904
69.55521012,69.70529588,60.98231132
69.62928816,69.83726415,61.04588336
69.69993568,69.99195969,61.15898370
69.83319039,70.20047170,61.22105489
69.87371355,70.33147513,61.27701544
69.38689966,69.70315180,60.81335763
68.53355489,68.29963551,60.08629931
67.95197256,67.14279588,59.56903945
67.61438679,66.50010720,59.21944683
67.45229417,66.26297170,59.13518439
67.44093053,66.26082762,59.13625643
67.41981132,66.21826758,59.14622642
67.49056604,66.28902230,59.25300172
67.64772727,66.49120926,59.36663808
67.65040738,66.54534734,59.38046741
67.69436106,66.62960978,59.40984134
67.69897084,66.65737564,59.38807890
67.81078473,66.74131647,59.46451544
67.87789451,66.86567324,59.55542453
68.02058319,67.06968268,59.63207547
68.15726844,67.28291166,59.79406089
68.22952401,67.49281732,59.80478130
68.42699400,67.74646226,59.99410377
68.52101201,67.90544597,60.11942539
68.67452830,68.15137221,60.25986278
68.73960120,68.27605060,60.28484134
68.87939537,68.51597341,60.42249142
68.97255575,68.68031732,60.43203259
69.03998714,68.82086192,60.54856346
69.15394511,69.02079760,60.61513722
69.25042882,69.19339623,60.74078045
69.37660806,69.43771441,60.80563894
69.29534734,69.39997856,60.78655660
68.73113208,68.59240995,60.21848199
68.03569897,67.33222556,59.67978130
67.51822470,66.39901372,59.23413379
67.30874786,66.06132075,59.00943396
67.27315609,65.98220412,59.02937393
67.28516295,66.01157804,59.09133791
67.33790738,66.11192110,59.12392796
67.43632075,66.27851630,59.23713551
67.60538165,66.50268010,59.38775729
67.61117067,66.51983276,59.36031304
67.60098628,66.55981990,59.35420240
67.65834048,66.60688250,59.38582762
67.72041166,66.66573756,59.45090051
67.83780017,66.82793739,59.57279160
67.96880360,67.04727702,59.61503002
68.20465266,67.31057033,59.83908662
68.27551458,67.48434820,59.87628645
68.37500000,67.67860206,59.97084048
68.43921527,67.86910377,59.97823756
68.53066038,68.05703259,60.11277873
68.66777444,68.22223413,60.28462693
68.75482419,68.36695969,60.34894940
68.85741852,68.57375643,60.43074614
68.95197256,68.73456261,60.46204974
69.01522298,68.87199828,60.51093482
69.14225986,69.06700257,60.67034734
69.18235420,69.20122213,60.66155660
69.32129074,69.42420669,60.81164237
69.34744854,69.51533019,60.82879503
69.52240566,69.74195969,60.93342624
69.61192110,69.91230703,61.03516295
69.66295026,70.06968268,61.10934820
69.46140652,69.85098628,60.88636364
68.64097341,68.69972127,60.19157376
67.98563465,67.35463122,59.64258148
67.50578902,66.52615780,59.16102058
67.37156947,66.21140652,59.07568611
67.34401801,66.19157376,59.08737136
67.33329760,66.19307461,59.09466123
67.42077616,66.32107633,59.17656518
67.56732419,66.50235849,59.29331046
67.63765009,66.60355918,59.34862779
67.64547599,66.62810892,59.38861492
67.60645369,66.58951544,59.31292882
67.61674528,66.60066467,59.34551887
67.68364065,66.66262864,59.41756003
67.82793739,66.85516724,59.57364923
67.96558748,67.07107633,59.63840051
68.09530446,67.26104202,59.72352058
68.20186535,67.48810034,59.82557890
68.25653945,67.63925815,59.90469554
68.38722127,67.84927101,60.02272727
68.47105489,67.99035163,60.07096913
68.59155232,68.16487993,60.18739280
68.68900086,68.33329760,60.24774871
68.77980274,68.47148370,60.29802744
68.81775300,68.61256432,60.35999142
68.34251715,67.99346055,59.89011578
67.66027015,66.89697684,59.29384648
67.11653087,65.91584477,58.85709691
66.80853345,65.42795883,58.57139794
66.70561750,65.28987993,58.52379931
66.73767153,65.32000429,58.56078473
66.79363208,65.37875214,58.67399228
66.96773156,65.63411235,58.86717410
67.12006861,65.89579760,58.93696398
67.16852487,65.98456261,58.93889365
67.20422384,66.03655660,59.01425815
67.32257719,66.12017581,59.08801458
67.34830617,66.17935249,59.07858062
67.46698113,66.34862779,59.21183533
67.60527444,66.54159520,59.36985420
67.82493568,66.82686535,59.49753431
67.94972127,67.01704545,59.58329760
68.12221269,67.29674099,59.67645798
68.20711835,67.46290738,59.81625214
68.35891938,67.68589194,59.93739280
68.44961407,67.86170669,60.03773585
68.57632933,68.06174957,60.12885935
68.67613636,68.26382933,60.18835763
68.76790309,68.39654803,60.25353774
68.87660806,68.61245712,60.41520154
68.93567753,68.77122642,60.41831046
69.11299314,69.03151801,60.57847341
69.21558748,69.21108491,60.68728559
69.29620497,69.38990137,60.75418096
69.44564751,69.62446398,60.85602487
69.52326329,69.82879503,60.94350343
69.65737564,69.99828473,61.04631218
69.49174528,69.86202830,60.90512436
68.69243139,68.71194254,60.21044168
67.92667238,67.24614065,59.57246998
67.40791166,66.31936106,59.07407804
67.23734991,65.93803602,58.92174099
67.14837050,65.82611492,58.86363636
67.14075901,65.82943825,58.89333190
67.14333190,65.84165952,58.89183105
67.18685678,65.89204545,58.91241424
67.33704974,66.09005146,59.04309605
67.34991424,66.11042024,59.02379931
67.36771012,66.18953688,59.08061750
67.40705403,66.22759434,59.09187393
67.43106775,66.26661664,59.12982419
67.57268439,66.41552316,59.25171527
67.66155660,66.60152230,59.33930103
67.88829331,66.87650086,59.55981990
67.98284734,67.07246998,59.60034305
68.15244425,67.31432247,59.73241852
68.28634220,67.51768868,59.82900943
68.37071184,67.62907376,59.88614923
68.52369211,67.89204545,60.02776587
68.60752573,68.00225129,60.03141081
68.65212264,68.21344340,60.09101630
68.78119640,68.43492710,60.36824614
68.89837050,68.59541166,60.37542882
68.98681389,68.75418096,60.40726844
69.12564322,68.98499142,60.55917667
69.23960120,69.17292024,60.61009863
69.28001715,69.29716981,60.66187822
69.43707118,69.56442967,60.80242281
69.45154374,69.64515437,60.81603774
69.19736278,69.35130789,60.63111063
68.39686964,68.15694683,59.96676672
67.79073756,66.97620069,59.36878216
67.47201973,66.29856346,59.11052744
67.36256432,66.08897942,58.97705832
67.34723413,66.06035592,58.97587907
67.32364923,66.07064751,59.01018439
67.38207547,66.14536878,59.04802744
67.52530017,66.32933105,59.18825043
67.51050600,66.38314751,59.19918525
67.56389365,66.44425386,59.23606346
67.54909949,66.43289022,59.22684391
67.61331475,66.48724271,59.25460978
67.66616638,66.60634648,59.28902230
67.76951115,66.75793310,59.44296741
67.91370069,66.96258576,59.54599057
68.06603774,67.16487993,59.63979417
68.19371784,67.40834048,59.68406947
68.28462693,67.59487564,59.83265437
68.37339194,67.74238851,59.92763722
68.49292453,67.90373070,60.02830189
68.54502573,68.00042882,60.02422813
68.64086621,68.22448542,60.11706690
68.74485420,68.35913379,60.18117496
68.86653087,68.55713979,60.31936106
69.02980274,68.79609777,60.46204974
68.94264580,68.77905232,60.38925815
68.42913808,68.09487564,59.86438679
67.80317324,66.97362779,59.35849057
67.38732847,66.27304889,59.03527015
67.26072041,65.98220412,58.94189537
67.25203688,65.91841767,58.88282590
67.30135077,65.99796312,58.92313465
67.39547599,66.15255146,58.99903516
67.55370926,66.42056175,59.21773156
67.60216552,66.51940395,59.20872642
67.60248714,66.55574614,59.24978559
67.58726415,66.53795026,59.23370497
67.58436964,66.53441252,59.22930961
67.68267581,66.63036021,59.26307890
67.76575901,66.77990995,59.38111063
67.93782161,67.00428816,59.54995712
68.02551458,67.16359348,59.60720412
68.19661235,67.42988851,59.72855918
68.28484134,67.63239708,59.81421527
68.36631647,67.75160806,59.88818611
68.51822470,67.97384220,60.00278731
68.55392367,68.06014151,59.98767153
68.65072899,68.24356775,60.15244425
68.71430103,68.38132504,60.14225986
68.88357633,68.61899657,60.33897942
68.95861921,68.79030875,60.34283877
69.01147084,68.92249142,60.42270583
68.73681389,68.58629931,60.20250858
68.03837907,67.46740995,59.54588336
67.46247856,66.43074614,59.09691252
67.07557890,65.80370926,58.78719983
67.01951115,65.65158662,58.73284734
67.03344768,65.65415952,58.72813036
67.03205403,65.66991852,58.72995283
67.15662521,65.83887221,58.93642796
67.25900515,66.00407376,59.00879074
67.32761578,66.13186106,59.03602058
67.30949828,66.13647084,59.01232847
67.33361921,66.16573756,59.05660377
67.34766295,66.20122213,59.05992710
67.42045455,66.28795026,59.07890223
67.60731132,66.53634220,59.26511578
67.68932247,66.68503431,59.35613208
67.87585763,66.95154374,59.47984563
67.99324614,67.14290309,59.58093911
68.15190823,67.35859777,59.69757719
68.21976844,67.53559177,59.80746141
68.30488851,67.67388508,59.85570326
68.43406947,67.87853774,60.01725986
68.51093482,68.03344768,59.98091767
68.64000858,68.25021441,60.11985420
68.73177530,68.40030017,60.24335334
68.88003859,68.62768010,60.33801458
68.98874357,68.82064751,60.49110206
69.04502573,68.95947684,60.45304460
69.16498714,69.18599914,60.61117067
69.22866638,69.35345197,60.65126501
69.39215266,69.60956261,60.78173242
69.41348628,69.75632504,60.80628216
69.04138079,69.24892796,60.44468268
68.18471269,67.85645369,59.75889794
67.45358062,66.47630789,59.10066467
67.02262007,65.75418096,58.73316895
66.86192110,65.46247856,58.57504288
66.77208405,65.32697256,58.48970840
66.69564751,65.26211407,58.44714837
66.71826758,65.27722985,58.47212693
66.85313036,65.44639794,58.66981132
66.92292024,65.57129074,58.72930961
67.02905232,65.69864923,58.82407804
67.04867067,65.71397942,58.82139794
67.08308319,65.76382933,58.82322041
67.20497427,65.92109777,58.95840480
67.32225557,66.07418525,59.00000000
67.49442539,66.31968268,59.15909091
67.61234991,66.50557461,59.29331046
67.76511578,66.74924957,59.37060463
67.91627358,66.95508148,59.51275729
68.03076758,67.12317753,59.60988422
68.12853774,67.28312607,59.71794597
68.19543310,67.44521870,59.74967839
68.28141081,67.63904374,59.82429245
68.38111063,67.76940395,59.91713122
68.51307890,67.97598628,60.04716981
68.63143225,68.15158662,60.17753002
68.70658233,68.34316038,60.18385506
68.82289880,68.51908233,60.28044597
68.90319468,68.63904374,60.30735420
69.01114923,68.88657804,60.50064322
69.06057033,69.05671098,60.50503859
69.22877358,69.26586621,60.67838765
68.96387221,68.99496141,60.39526158
68.20690395,67.80145798,59.78945111
67.43203259,66.43310463,59.16123499
66.91938250,65.58469125,58.65158662
66.79427530,65.28291166,58.53827187
66.72405660,65.19446827,58.46333619
66.72019726,65.18975129,58.48456261
66.70015009,65.20551029,58.48059605
66.88036021,65.41273585,58.67710120
66.96569468,65.57397084,58.78280446
67.02047599,65.65705403,58.80349485
67.07429245,65.73231132,58.84401801
67.10870497,65.78237564,58.86277873
67.23917238,65.91455832,58.99924957
67.32879503,66.06378645,59.03462693
67.50192967,66.32246998,59.19210978
67.67281304,66.54974271,59.31110635
67.79170240,66.73166810,59.43557033
67.94275300,66.97084048,59.64451115
68.05392367,67.15941252,59.62703688
68.18224700,67.34969983,59.72191252
68.28527015,67.53441252,59.76747427
68.38454117,67.69907804,59.83265437
68.55992710,67.93128216,60.03398370
68.64922813,68.10291595,60.17409949
68.80145798,68.36406518,60.30703259
68.84777015,68.49442539,60.27830189
68.87296312,68.54813465,60.33544168
68.36042024,67.78666381,59.78023156
67.71183533,66.73885077,59.32375643
67.34455403,66.02186964,58.93481990
67.18599914,65.74967839,58.78398370
67.21087050,65.73617067,58.85195111
67.22352058,65.77304889,58.87596484
67.32740137,65.90030017,58.97191252
67.45143654,66.07472127,59.10259434
67.58490566,66.28108919,59.20819039
67.64515437,66.37414237,59.22662950
67.65512436,66.40490995,59.26297170
67.71891081,66.46376501,59.29416810
67.79223842,66.57954545,59.34412521
67.97448542,66.81089194,59.55167238
68.11406518,67.03709262,59.61042024
68.27808748,67.28344768,59.72448542
68.41938250,67.50128645,59.81668096
68.55499571,67.69800600,59.96022727
68.68224700,67.90951973,60.02808748
68.78012436,68.07386364,60.09230274
68.88454117,68.31057033,60.24346055
69.02101201,68.49699828,60.26050600
69.09069468,68.66981132,60.38100343
69.25653945,68.90490995,60.58136792
69.36545883,69.10559605,60.63925815
69.45250858,69.33115352,60.73767153
69.56646655,69.50557461,60.82461407
69.68599914,69.76061321,60.91863208
69.79352487,69.94446827,60.95733276
69.87950257,70.11942539,61.05510292
70.03548456,70.32343482,61.23081046
70.11824614,70.50460978,61.33908662
70.19060892,70.71933962,61.34927101
69.94414666,70.42763722,61.13411235
69.46826758,69.52101201,60.67259863
69.07750858,68.67077616,60.27519297
68.91112779,68.27605060,60.10859777
68.89418954,68.16756003,60.11953259
68.90147942,68.15319468,60.13840051
68.94521870,68.20293739,60.20443825
68.98359777,68.25246569,60.18771441
69.06014151,68.41713122,60.29899228
69.02873070,68.43803602,60.19789880
69.03398370,68.46280017,60.26940395
69.03087479,68.45497427,60.24764151
69.00868353,68.43406947,60.27690823
69.09412521,68.55703259,60.30017153
69.17163379,68.67270583,60.36867496
69.27412093,68.87360635,60.50268010
69.32858062,69.02669383,60.54041595
69.42034734,69.22030446,60.70808319
69.49678388,69.34069468,60.70175815
69.63722127,69.57568611,60.83726415
69.69168096,69.67066895,60.90265866
69.71762436,69.79716981,60.88529160
69.86256432,70.00514580,61.06432247
69.93674957,70.12006861,61.09348199
70.04877787,70.33844340,61.29663379
70.03934391,70.43192539,61.24217410
69.78494854,70.02594340,60.96140652
69.32354202,69.27101201,60.50321612
69.12982419,68.70165094,60.33136792
69.08018868,68.50171527,60.32847341
68.99399657,68.36363636,60.20411664
69.05574614,68.39622642,60.29566895
69.02176244,68.41605918,60.23702830
69.15147942,68.54470412,60.34701973
69.18696398,68.62735849,60.40201544
69.19961407,68.69982847,60.45111492
69.18567753,68.70454545,60.43417667
69.17881647,68.74099485,60.42259863
69.24163808,68.80102916,60.49699828
69.26790309,68.87575043,60.53226844
69.40641081,69.10152230,60.65791166
69.50546741,69.24753431,60.71322899
69.60516724,69.43128216,60.81228559
69.66370069,69.57707976,60.86181389
69.71944683,69.71816038,60.92828045
69.80799743,69.89376072,61.00396655
69.81582333,69.92924528,61.05810463
69.94886364,70.11653087,61.16262864
69.96097770,70.22405660,61.20025729
70.07118353,70.42517153,61.34026587
70.19393225,70.60902659,61.42034734
70.27540738,70.79406089,61.49238851
70.40190823,71.00010720,61.62146226
70.44650515,71.08351201,61.64676244
70.60227273,71.30510292,61.79631218
70.67324185,71.46119211,61.90094340
70.80606775,71.66005575,61.98102487
70.88304031,71.77883791,62.06657376
70.91638079,71.94382504,62.09155232
71.07011149,72.16595197,62.27980274
70.89676244,71.93171098,62.11953259
70.31464408,71.15984134,61.59101630
69.97159091,70.30027873,61.20936964
69.82182676,69.80360206,60.95132933
69.78183962,69.63797170,60.92484991
69.79020154,69.52454974,60.84573328
69.78344768,69.47512864,60.87435678
69.73702830,69.39654803,60.88089623
69.76672384,69.42602916,60.94704117
69.76318611,69.43621355,60.90683962
69.76961835,69.44221698,60.90383791
69.77358491,69.45926244,60.93717839
69.74249571,69.44232419,60.95368782
69.79727702,69.49410377,60.99474700
69.85548885,69.57225557,61.05660377
69.92377787,69.70894082,61.08629931
69.96440823,69.78923671,61.10398799
70.08865780,69.96087050,61.22137650
70.16734563,70.07557890,61.27004717
70.15265866,70.17774443,61.32632933
70.27122642,70.31325043,61.45411664
70.29759863,70.38250429,61.44468268
70.39279588,70.55638937,61.58426244
70.41059177,70.65137221,61.54888508
70.53966552,70.83254717,61.66144940
70.60259434,70.93149657,61.75782590
70.68546312,71.05617496,61.85720412
70.72748714,71.23970840,61.86813894
70.83533448,71.35205832,61.96312178
70.91863208,71.51661664,62.08780017
70.96676672,71.60656089,62.10827616
71.08436964,71.78355489,62.19521870
71.06936106,71.87703688,62.25525300
70.93685678,71.65919811,62.07343482
70.47234134,70.85162950,61.64601201
70.07643654,69.95786878,61.13496998
69.93664237,69.48145369,61.00675386
69.84659091,69.20315180,60.89333190
69.81968268,69.14601201,60.92538593
69.76039880,69.01876072,60.79534734
69.78655660,69.01725986,60.90512436
69.81582333,69.04524014,60.92538593
69.81571612,69.07707976,60.95036449
69.82364923,69.07686535,60.92956690
69.75846913,68.99110206,60.85731132
69.78805746,68.99689108,60.92399228
69.81271441,69.02562178,60.86910377
69.91069897,69.15362350,60.98359777
70.00289451,69.28934391,61.11781732
70.06014151,69.38475557,61.15298027
70.16927530,69.56292882,61.28741424
70.22534305,69.66273585,61.22662950
70.32686535,69.80456690,61.33522727
70.37167667,69.90040738,61.39354631
70.41370069,69.99217410,61.40834048
70.51468696,70.14075901,61.50804031
70.53741424,70.24238851,61.53591338
70.64108062,70.39043739,61.64386792
70.74088765,70.58308319,61.73231132
70.77154803,70.68792882,61.75632504
70.76736707,70.69639794,61.77765866
70.41638079,70.09562607,61.33254717
69.99313894,69.26436535,61.05188679
69.73252573,68.71365780,60.79792024
69.60752573,68.46580189,60.68857204
69.60634648,68.42838765,60.70111492
69.59026587,68.40716123,60.68696398
69.62671527,68.45518868,60.76029160
69.68546312,68.56882504,60.82954545
69.69103774,68.60956261,60.82761578
69.71944683,68.67999571,60.85924099
69.71183533,68.62671527,60.79138079
69.73123928,68.66498714,60.84616209
69.80017153,68.73391938,60.88614923
69.86245712,68.82686535,60.95165094
70.00300172,69.03580617,61.11899657
70.08522727,69.13561321,61.14225986
70.22212693,69.34755575,61.22577187
70.26436535,69.46483705,61.26972556
70.34005146,69.62092624,61.29759863
70.43685678,69.74281732,61.38153945
70.44554031,69.83104631,61.46440823
70.61213551,70.01329331,61.59005146
70.62446398,70.11095626,61.61224271
70.78795026,70.32439966,61.78644940
70.82943825,70.45765437,61.77519297
70.91005575,70.59830617,61.84208834
71.00246569,70.73231132,61.92056175
71.03634220,70.85516724,61.99860635
71.12650086,71.01093482,62.08319039
71.22609348,71.16391509,62.16155660
71.32161235,71.35270154,62.27272727
71.28216123,71.39794168,62.22234134
71.00804031,70.89075901,61.88218268
70.38464837,69.87800172,61.40630360
69.99517581,69.08458405,61.00846913
69.85023585,68.73595626,60.90169383
69.77476415,68.58179674,60.82600772
69.81003431,68.61642367,60.87907376
69.80413808,68.63454117,60.84551887
69.95025729,68.82590051,61.08276158
69.97641509,68.92131218,61.03730703
69.99603345,68.94286021,61.09337479
69.96076329,68.93117496,61.01929674
69.93632075,68.88057461,60.99506861
69.98777873,68.92924528,61.00879074
70.04867067,69.00664666,61.10741852
70.21526587,69.22427101,61.25986278
70.29309605,69.36213551,61.29695540
70.36181389,69.49624786,61.35173671
70.48509863,69.70529588,61.50589623
70.52283448,69.78462693,61.48552744
70.63947256,69.99581904,61.60430961
70.66991852,70.07815180,61.55113636
70.79298885,70.26661664,61.70872642
70.85345197,70.35881218,61.79384648
70.94682676,70.52229846,61.84090909
70.92056175,70.53162521,61.82772298
70.48617067,69.86524443,61.40791166
69.97234134,68.99592624,60.94832762
69.62231990,68.30842624,60.69436106
69.48466981,68.09551887,60.58372642
69.44822041,68.03419811,60.57236278
69.46419383,68.04545455,60.66230703
69.55531732,68.16466552,60.68889365
69.58126072,68.28066038,60.72448542
69.69918525,68.42860206,60.83126072
69.66766724,68.44168096,60.79481132
69.68878645,68.45143654,60.80135077
69.69843482,68.47909520,60.80928388
69.78516295,68.60441681,60.91123499
69.90394511,68.78623499,61.01179245
70.03141081,68.95979846,61.10388079
70.18278302,69.20122213,61.18171098
70.27294168,69.32139794,61.29524014
70.40919811,69.55306604,61.37553602
70.47062607,69.67624357,61.44318182
70.57911664,69.85913379,61.54974271
70.64065180,69.99914237,61.59777015
70.80585334,70.20636792,61.69822041
70.89301029,70.35570326,61.79159520
70.93128216,70.46258576,61.83072470
71.03923671,70.65373070,61.89493997
71.07590051,70.76672384,61.98134648
71.23466981,71.00568182,62.14912093
71.32000429,71.21344340,62.20808319
71.47309177,71.37660806,62.32922384
71.53216123,71.50686106,62.39193825
71.17484991,71.02562178,62.03719983
70.48520583,69.88957976,61.42838765
69.85956261,68.79888508,60.97963122
69.59669811,68.25493139,60.67602916
69.48885077,68.01200686,60.55145798
69.41873928,67.89708405,60.57246998
69.34466123,67.81314322,60.54448971
69.31292882,67.77026158,60.45915523
69.35055746,67.86706690,60.53580617
69.44918525,68.00836192,60.61728130
69.53795026,68.13529160,60.67881647
69.54599057,68.16219983,60.70422384
69.57783019,68.20497427,60.72341338
69.70175815,68.35763293,60.83619211
69.80424528,68.51672384,60.90308748
69.95615352,68.73574185,61.02905232
70.05413808,68.90876930,61.15662521
70.22094768,69.15255146,61.24560463
70.32504288,69.33018868,61.29052316
70.39719125,69.43900086,61.35795455
70.48059605,69.61738851,61.45894082
70.58361921,69.74764151,61.48113208
70.71237136,69.96494425,61.59423242
70.79502573,70.06003431,61.69210978
70.93439108,70.28923671,61.79695540
71.05435249,70.45786878,61.90876930
71.14065180,70.62264151,61.96762436
71.24249571,70.82697256,62.07054031
71.33994425,70.98638508,62.14483276
71.42216981,71.15158662,62.22770154
71.47298456,71.26908233,62.26522298
71.61159949,71.49731990,62.42013293
71.67099057,71.63518439,62.50075043
71.78741424,71.85709691,62.57793739
71.80992710,71.93149657,62.67720840
71.43792882,71.36588765,62.23338336
70.82847341,70.24828473,61.64043739
70.23584906,69.24592624,61.12071184
69.99110206,68.73274014,60.95851201
69.81250000,68.46151372,60.75739708
69.82515009,68.43449828,60.82515009
69.80242281,68.36374357,60.78612779
69.76843911,68.32997427,60.76951115
69.81603774,68.42624357,60.78795026
69.89804889,68.56678816,60.95379503
69.93953688,68.61749571,60.90094340
69.94189537,68.61663808,60.95990566
69.96783877,68.68717839,60.95090051
70.06989708,68.80295883,61.06689537
70.14611921,68.96751715,61.12039022
70.32129074,69.20894082,61.26104202
70.41166381,69.33726415,61.27873070
70.54320326,69.52669383,61.44243139
70.60988422,69.68299743,61.47566467
70.73231132,69.84766295,61.54191681
70.81518010,70.02787307,61.59669811
70.88957976,70.16187822,61.69746998
70.97105489,70.32761578,61.78387650
71.07086192,70.47952401,61.84637650
71.21537307,70.66584477,61.94779160
71.27551458,70.82096913,62.01157804
71.35924099,70.96773156,62.10345197
71.45936964,71.14847770,62.21065609
71.50139365,71.28162521,62.28762864
71.58340480,71.47877358,62.38807890
71.63689966,71.62575043,62.41670240
71.77412093,71.83201115,62.55478130
71.77787307,71.93331904,62.56003431
71.46376501,71.45347341,62.25385935
70.85902659,70.43364065,61.63647084
70.38454117,69.48852916,61.19543310
70.17377787,69.04234563,60.99710549
70.10023585,68.84487564,60.98445540
70.09712693,68.86127787,60.96869640
70.04373928,68.84026587,60.93910806
70.10559605,68.89847770,61.02240566
70.18160377,69.00557461,61.11556604
70.22191252,69.10205832,61.11320755
70.23241852,69.15308748,61.13314751
70.22126930,69.16487993,61.13572041
70.27540738,69.22845197,61.17999571
70.33576329,69.30960549,61.23477702
70.50021441,69.52508576,61.36492281
70.57943825,69.65748285,61.41091338
70.67903087,69.82997427,61.48756432
70.77304889,70.02497856,61.53955832
70.82075472,70.14000858,61.61663808
70.90608919,70.31174957,61.69146655
70.97094768,70.42056175,61.78355489
71.05649657,70.60152230,61.81014151
71.09959262,70.72009005,61.88732847
71.12274871,70.82343482,61.89912093
71.25739708,71.01254288,62.03398370
71.39258148,71.20947684,62.17967410
71.49388937,71.36159949,62.23424099
71.33683533,71.26500858,62.14536878
70.87349914,70.56153516,61.68224700
70.36492281,69.56861063,61.14644082
70.04813465,69.01039880,60.92592196
69.99689108,68.82472127,60.92849485
69.98391938,68.79309605,60.92388508
70.00825472,68.87918096,60.96065609
70.10162950,68.97105489,61.00407376
70.23241852,69.18031732,61.14172384
70.28205403,69.29770583,61.21344340
70.27755146,69.26747427,61.15490995
70.27840909,69.27883791,61.16112779
70.29706261,69.30735420,61.16241424
70.39065180,69.46312178,61.27294168
70.48788593,69.61524443,61.38282590
70.60999142,69.81732419,61.46140652
70.77015437,70.03066038,61.55381647
70.82407804,70.17334906,61.57386364
70.97587907,70.36567324,61.71430103
71.02958834,70.52208405,61.80981990
71.04877787,70.60538165,61.82429245
71.11856775,70.78023156,61.94511149
71.17270583,70.87103345,61.94779160
71.29952830,71.07975986,62.09519726
71.36095626,71.23016724,62.14869211
71.41316467,71.33790738,62.20261578
71.50750429,71.53880789,62.26779588
71.54867067,71.66102058,62.30317324
71.66123499,71.84969983,62.44146655
71.73992281,71.99571184,62.52508576
71.85109348,72.22523585,62.68878645
71.81946827,72.19339623,62.62650086
71.26286449,71.41616638,62.08640652
70.74517581,70.35495283,61.53784305
70.37028302,69.54802744,61.12199828
70.23552744,69.22502144,61.05199400
70.18396226,69.14815609,61.01608062
70.15405232,69.11181389,61.07793739
70.21719554,69.20583190,61.07118353
70.27176244,69.29127358,61.11288593
70.40994854,69.46869640,61.22855918
70.35559605,69.46773156,61.19993568
70.35205832,69.46762436,61.16938250
70.34498285,69.45004288,61.19060892
70.38293310,69.50085763,61.12692967
70.44500429,69.64033019,61.23123928
70.59219554,69.80317324,61.35463122
70.71816038,70.01147084,61.47416381
70.78955832,70.13068182,61.57043310
70.91262864,70.34637650,61.67763722
70.90844768,70.46054889,61.68460549
70.97598628,70.57761578,61.74463979
71.07890223,70.72384220,61.83833619
71.12317753,70.82815180,61.86846055
71.22512864,70.99871355,61.99549743
71.26500858,71.09734134,62.08490566
71.14258148,70.99163808,61.90587479
70.63668525,70.15298027,61.38518439
70.16412950,69.20293739,60.96901801
69.83940823,68.65673242,60.73370497
69.75525300,68.43406947,60.60087907
69.71269297,68.41423671,60.61192110
69.64397513,68.35345197,60.60881218
69.68063894,68.40405232,60.67420669
69.80874786,68.58597770,60.74292453
69.84862779,68.69253859,60.75943396
69.89193825,68.72534305,60.80917667
69.90898370,68.75096484,60.85495283
69.88829331,68.81367925,60.79309605
69.96172813,68.89676244,60.86095626
70.12221269,69.10205832,61.04909949
70.21376501,69.25557461,61.14751286
70.32364923,69.48831475,61.19586192
70.42677959,69.63175386,61.29942110
70.48231132,69.73852916,61.27111921
70.60066467,69.96280017,61.42978130
70.68632075,70.04459691,61.51136364
70.75846913,70.23359777,61.59787736
70.80842624,70.34723413,61.58436964
70.93707118,70.52690823,61.70315180
70.95958405,70.65083619,61.75932676
70.95443825,70.74924957,61.78891509
71.04180961,70.92838765,61.85913379
71.14140223,71.07279160,61.94993568
71.25032161,71.27948113,62.08501286
71.31593053,71.39676244,62.14440395
71.35130789,71.51490137,62.21966123
70.99560463,71.02690823,61.79534734
70.30842624,69.86095626,61.17120497
69.78248285,68.86310034,60.68771441
69.47802316,68.32086192,60.41005575
69.42570755,68.15683962,60.47587907
69.31099914,68.03591338,60.30220840
69.23488422,67.93728559,60.29620497
69.22126930,67.95733276,60.27701544
69.32922384,68.05756861,60.42056175
69.41584477,68.17206261,60.52712264
69.41370069,68.19393225,60.48509863
69.41648799,68.24667667,60.47716552
69.41102058,68.28237564,60.43546312
69.51500858,68.41788165,60.56946827
69.64547599,68.58544168,60.69650515
69.70583190,68.70840480,60.70454545
69.84852058,68.92141938,60.82343482
69.97191252,69.07118353,60.97855918
70.02690823,69.23617067,61.04856346
70.08897942,69.37349914,61.04674099
70.21033448,69.55188679,61.14193825
70.30017153,69.70261578,61.21440823
70.30713979,69.77454974,61.24024443
70.41219983,69.96880360,61.31121355
70.50332333,70.11846055,61.38968696
70.61513722,70.31089194,61.46955403
70.68278302,70.46172813,61.53870069
70.77197684,70.63668525,61.66005575
70.82515009,70.78141081,61.75825472
70.86867496,70.92806604,61.79556175
70.97695111,71.13196827,61.90769726
71.02808748,71.25943396,61.98134648
70.96698113,71.22770154,61.91873928
70.41970412,70.32858062,61.30177959
69.77176244,69.16305746,60.74581904
69.37231990,68.35280875,60.35645369
69.14504717,67.93792882,60.20015009
69.09873499,67.86245712,60.24581904
69.00053602,67.75139365,60.16477273
68.97695111,67.72244854,60.19050172
69.05789022,67.82096913,60.21204974
69.11567324,67.91520154,60.28012436
69.12960978,67.95293739,60.32793739
69.10420240,67.99828473,60.22384220
69.12725129,68.00182247,60.28998714
69.14547599,68.03291166,60.32214837
69.32386364,68.24431818,60.46901801
69.38915094,68.40630360,60.48027444
69.49442539,68.57504288,60.52937393
69.63529160,68.80638937,60.68953688
69.76082762,68.95379503,60.79856346
69.87853774,69.13582762,60.80992710
69.88357633,69.23863636,60.84969983
70.02540738,69.41713122,60.97459262
70.09433962,69.50664666,61.11728130
70.17560034,69.70883362,61.11042024
70.33490566,69.92109777,61.27165523
70.38464837,70.07525729,61.32204117
70.52487136,70.31196398,61.44511149
70.55606775,70.40512436,61.50804031
70.67174099,70.61942539,61.66595197
70.73252573,70.75439537,61.66477273
70.83587050,70.95100772,61.83951544
70.93546312,71.12843053,61.90115780
70.72641509,70.89322470,61.67367067
70.16906089,69.92828045,61.09208834
69.54770583,68.79213122,60.55692539
69.20701115,68.14075901,60.32300600
69.07150515,67.85216552,60.20894082
69.05445969,67.80746141,60.22212693
69.02401372,67.77036878,60.19661235
69.01447256,67.75353774,60.13840051
69.12103345,67.89976415,60.29234563
69.13400515,67.94939966,60.30017153
69.14526158,68.01940395,60.28119640
69.13411235,68.03226844,60.26404374
69.17602916,68.06710978,60.35334477
69.27454974,68.17141938,60.41219983
69.35934820,68.28280446,60.50836192
69.53623499,68.52315609,60.59541166
69.62339194,68.69800600,60.68878645
69.72330617,68.86974700,60.70250858
69.84937822,69.04813465,60.88582762
69.96880360,69.24346055,60.91091338
70.03301887,69.35763293,60.93503431
70.11224271,69.51597341,61.08158233
70.22319897,69.67581475,61.16123499
70.26189966,69.77840909,61.17141938
70.39676244,70.00353774,61.32322041
70.45743997,70.12403516,61.38196827
70.58093911,70.29470412,61.48574185
70.66680961,70.46590909,61.59262436
70.76908233,70.63036021,61.72062607
70.84734134,70.80853345,61.73091767
70.91680961,70.92452830,61.80681818
70.89247427,70.96280017,61.79577616
70.36170669,70.15201544,61.27937393
69.80617496,69.11020583,60.71397942
69.41520154,68.34380360,60.46644511
69.21998285,67.96526587,60.26715266
69.20111492,67.93653516,60.33769297
69.17034734,67.89225986,60.31657376
69.20197256,67.93717839,60.34862779
69.28269726,68.06099914,60.28784305
69.38196827,68.22394940,60.47394940
69.36631647,68.22716552,60.40619640
69.34337479,68.19135935,60.41713122
69.37028302,68.22212693,60.45132933
69.42195540,68.26886792,60.50707547
69.59980703,68.45293739,60.65490995
69.64965695,68.57161235,60.64451115
69.78066038,68.80660377,60.72041166
69.89247427,68.98788593,60.87339194
69.97909520,69.11159949,60.93021012
70.06346484,69.28987993,60.98734991
70.10720412,69.38872213,60.97148370
70.18846484,69.54138079,61.10999142
70.28430532,69.69103774,61.10248714
70.32557890,69.75117925,61.22352058
70.45593911,69.99217410,61.30842624
70.55370926,70.08822899,61.43342624
70.59380360,70.21858919,61.47309177
70.37907376,69.95025729,61.23413379
69.79245283,69.01500858,60.68481990
69.33319039,68.17345626,60.35720412
69.03977273,67.61803173,60.11953259
68.99131647,67.48981561,60.12424957
68.99989280,67.47587907,60.11310034
68.97984563,67.47041166,60.12521441
69.08479846,67.65383791,60.26468696
69.16573756,67.81282161,60.27722985
69.20111492,67.89944254,60.31560892
69.22684391,67.89343911,60.35548885
69.17302744,67.84412521,60.29824185
69.22137650,67.89804889,60.36460120
69.31646655,68.01307890,60.43224700
69.39054460,68.21001286,60.47030446
69.55574614,68.40566038,60.61363636
69.61385077,68.53773585,60.70347341
69.75010720,68.70872642,60.75332333
69.84305317,68.87414237,60.83812178
69.93760720,69.01393654,60.89558319
70.02615780,69.16187822,60.99635506
70.06550172,69.22201973,60.98917238
70.19757719,69.40533877,61.10152230
70.23852916,69.50139365,61.12081904
70.37457118,69.72770154,61.23284734
70.44243139,69.85259434,61.33372642
70.46440823,69.97105489,61.33662093
70.29845626,69.74378216,61.17924528
69.62746569,68.71344340,60.60559605
69.04159520,67.72126930,60.09198113
68.79406089,67.14826329,59.90726844
68.67956690,66.95422384,59.81014151
68.64376072,66.94414666,59.81057033
68.64343911,66.92817324,59.81325043
68.70057890,66.98724271,59.89440395
68.79706261,67.19264580,59.99045883
68.86320755,67.29009434,60.08233276
68.84251715,67.30778302,60.01511578
68.84219554,67.34734134,60.05295883
68.87768010,67.35816895,60.07536449
68.99099485,67.54309605,60.12028302
69.12553602,67.72866638,60.24260292
69.15255146,67.83715695,60.33715695
69.33554889,68.11470840,60.40651801
69.44478988,68.26811750,60.49924957
69.50782590,68.43535592,60.55949828
69.58801458,68.57150515,60.65126501
69.69425386,68.70218696,60.71869640
69.82493568,68.86117067,60.79770583
69.88357633,68.98263293,60.80445969
70.02283448,69.17870926,60.94671955
70.10162950,69.34519726,60.96826758
70.24163808,69.54867067,61.13657804
70.31174957,69.67924528,61.19296741
70.37382075,69.83394082,61.26918954
70.50375214,70.03912950,61.38454117
70.53269726,70.12039022,61.39869211
70.66487993,70.34755575,61.50964837
70.66852487,70.43481990,61.50964837
70.82386364,70.66605918,61.67270583
70.73938679,70.60688250,61.65319468
70.10248714,69.65008576,61.04052316
69.37467839,68.37532161,60.41112779
68.80177959,67.38432676,59.95551029
68.60806175,66.96312178,59.76243568
68.48595626,66.79770583,59.67399228
68.44618353,66.71740995,59.63486278
68.36042024,66.58469125,59.58597770
68.42163379,66.66777444,59.66691681
68.53580617,66.83683533,59.79459691
68.55906947,66.91627358,59.81871784
68.58812178,66.97169811,59.82054031
68.58747856,67.00150086,59.82632933
68.63593482,67.05445969,59.88765009
68.74689108,67.20636792,59.99710549
68.86460120,67.44350343,60.01232847
68.99292453,67.64837050,60.16380789
69.09862779,67.82225557,60.28087479
69.18878645,67.98788593,60.24260292
69.35205832,68.18503431,60.45475986
69.47609348,68.37210549,60.57836621
69.53698542,68.47909520,60.55671098
69.66209262,68.70111492,60.73006003
69.75493139,68.83490566,60.78902230
69.84637650,68.99560463,60.80949828
69.97609348,69.19350343,60.96151372
70.07804460,69.37864494,61.04909949
70.21740995,69.56882504,61.12993139
70.32815180,69.73917238,61.25139365
70.37371355,69.90137221,61.29202401
70.47716552,70.06057033,61.35302316
70.65458834,70.30038593,61.51565180
70.73048885,70.46333619,61.57139794
70.72287736,70.49946398,61.60516724
70.31710978,69.88614923,61.16702401
69.53709262,68.62156947,60.52444254
69.00128645,67.65973413,60.07139794
68.74839194,67.20079331,59.92034734
68.73563465,67.12735849,59.90651801
68.70368782,67.12757290,59.92560034
68.68299743,67.06142796,59.88711407
68.77379931,67.18996569,59.95754717
68.87403516,67.31164237,60.05906947
68.96483705,67.46633791,60.11320755
68.97598628,67.49271012,60.12178388
69.00900515,67.53344768,60.16788165
69.14118782,67.68042453,60.26361492
69.18932247,67.80831904,60.23520583
69.31657376,68.04127358,60.37768010
69.48906518,68.27722985,60.52830189
69.62435678,68.43460549,60.67795883
69.77851630,68.70347341,60.72577187
69.83522727,68.81464408,60.76704545
69.97394940,68.99131647,60.84058748
70.07118353,69.16230703,60.96590909
70.17495712,69.36063465,61.03259005
70.25482419,69.48509863,61.09037307
70.37424957,69.69607633,61.16863208
70.50879074,69.90780446,61.34777015
70.63518439,70.07086192,61.41112779
70.71944683,70.23359777,61.50675386
70.36234991,69.77144082,61.18117496
69.81764580,68.85945540,60.74731990
69.38786449,68.11192110,60.33426244
69.23048885,67.73584906,60.22813036
69.20400943,67.68192539,60.22159091
69.20819039,67.66102058,60.18953688
69.27358491,67.77079760,60.25943396
69.36299314,67.92152659,60.37607204
69.55081475,68.17302744,60.47620069
69.59530446,68.26039880,60.54341767
69.62789451,68.32515009,60.53398370
69.62896655,68.36910377,60.58972985
69.67945969,68.41959691,60.63036021
69.83158233,68.62039022,60.69950686
69.93503431,68.81646655,60.81861063
70.10045026,69.04641938,60.94371784
70.21901801,69.26704545,61.01790309
70.29288165,69.46204974,61.11234991
70.37875214,69.60409520,61.17699400
70.44382504,69.71183533,61.26243568
70.58672813,69.91370069,61.34080189
70.66487993,70.03023156,61.38936535
70.78130360,70.24099485,61.52401372
70.89193825,70.39794168,61.63657804
70.95926244,70.57611492,61.65994854
71.11299314,70.80896226,61.81153516
71.16552316,70.90608919,61.86042024
71.26393654,71.10506003,61.97770154
71.36234991,71.29245283,62.08597770
71.42442110,71.44972127,62.13389794
71.46805317,71.58361921,62.22469983
71.58876501,71.78280446,62.37392796
71.69532590,71.97984563,62.47362779
71.72662950,72.12392796,62.47834477
71.58351201,71.97223413,62.36631647
71.01940395,71.02219125,61.74217410
70.54406089,70.06635935,61.26189966
70.26511578,69.45808319,60.98874357
70.19929245,69.26318611,60.94264580
70.19854202,69.24957118,60.98584906
70.17549314,69.25075043,60.97287736
70.25010720,69.32643654,61.00761149
70.29706261,69.43621355,61.04298885
70.37885935,69.56560892,61.20111492
70.35688250,69.58715695,61.10731132
70.35688250,69.56121355,61.16734563
70.35966981,69.56764580,61.14118782
70.44200257,69.67892367,61.21258576
70.51597341,69.85130789,61.26683105
70.63003859,70.02133362,61.41027015
70.75728988,70.24335334,61.48670669
70.82472127,70.34058748,61.61224271
70.93739280,70.55445969,61.73391938
70.97941681,70.71269297,61.69489708
71.05928388,70.83994425,61.79470412
71.12489280,70.99303173,61.89333190
71.23027444,71.13314751,61.96848199
71.30799743,71.29920669,62.07000429
71.33780017,71.40598199,62.06357204
71.48402659,71.64397513,62.22823756
71.51382933,71.76490137,62.28548456
71.34916381,71.56035592,62.07965266
70.86170669,70.67152659,61.56582333
70.38036021,69.84819897,61.12392796
70.19650515,69.37167667,60.92570755
70.14912093,69.23810034,60.93664237
70.14397513,69.24731990,60.92828045
70.15448113,69.24624786,60.94864923
70.24946398,69.42270583,61.06314322
70.32300600,69.55006432,61.04213122
70.39504717,69.66284305,61.16691681
70.41327187,69.67978130,61.20100772
70.40040738,69.70701115,61.16906089
70.41402230,69.76136364,61.18417667
70.50471698,69.91316467,61.26843911
70.65759005,70.11749571,61.45004288
70.74549743,70.31753859,61.48842196
70.82225557,70.50921955,61.62821612
70.91884648,70.62853774,61.70508148
70.97137650,70.84809177,61.75396655
71.08962264,70.98220412,61.89622642
71.17227702,71.12768010,61.94907804
71.23970840,71.30660377,61.97791595
71.29867067,71.42645798,62.05188679
71.44071612,71.64097341,62.20272298
71.47770154,71.77873070,62.26972556
71.57429245,71.98788593,62.38132504
71.68192539,72.12360635,62.46858919
71.73220412,72.27594340,62.53194683
71.84809177,72.48295455,62.70979846
71.87081904,72.61653087,62.65641081
72.00343053,72.78966552,62.76650943
72.01918954,72.91884648,62.78527015
72.13132504,73.07450686,62.90340909
72.21773156,73.25996998,62.98509863
72.26575901,73.36374357,63.03977273
72.03805746,73.08051029,62.79063036
71.29813465,71.92978130,62.16134220
70.68964408,70.70250858,61.54020154
70.31625214,69.89279588,61.11299314
70.21826758,69.56110635,60.98434820
70.14418954,69.41841767,60.91091338
70.04513293,69.28655660,60.81786021
70.04727702,69.30949828,60.86931818
70.08233276,69.34584048,60.91466552
70.16273585,69.43696398,61.01372213
70.15801887,69.46012007,60.94339623
70.16530875,69.45497427,61.00621784
70.16530875,69.44253859,61.01758148
70.20636792,69.52304889,61.05199400
70.27969554,69.65276587,61.08072470
70.36781732,69.77583619,61.17592196
70.51908233,70.00836192,61.35441681
70.57032590,70.14579760,61.38893654
70.72630789,70.36288593,61.46365780
70.75600343,70.49292453,61.51972556
70.85098628,70.63400515,61.69511149
70.89204545,70.77047599,61.68171098
70.94403945,70.89172384,61.74721269
71.03441252,71.02219125,61.88561321
71.04899228,71.10602487,61.86738851
71.15480274,71.28044597,61.96719554
71.22437822,71.42549314,62.02583619
71.33243997,71.60366638,62.14590480
71.42495712,71.74120926,62.22791595
71.47212693,71.89108062,62.32482847
71.54759863,72.00578902,62.39965695
71.57246998,72.13743568,62.39708405
71.72437822,72.38389794,62.53419811
71.74024443,72.44478988,62.55906947
71.43192539,72.01704545,62.28012436
70.66906089,70.76790309,61.54470412
70.14515437,69.61642367,60.94103774
69.75096484,68.93021012,60.60023585
69.59937822,68.62918096,60.46558748
69.61460120,68.62210549,60.52862350
69.59862779,68.60313036,60.55703259
69.61449400,68.63979417,60.58147513
69.71290738,68.74571184,60.67002573
69.77883791,68.82986707,60.72137650
69.75621784,68.86899657,60.67667238
69.71933962,68.80617496,60.62156947
69.74324614,68.84080189,60.66713122
69.79116638,68.90287307,60.75064322
69.95679674,69.08501286,60.84787736
70.05671098,69.28784305,60.96580189
70.17935249,69.47309177,61.07729417
70.32300600,69.67227702,61.16177101
70.35645369,69.80370926,61.18750000
70.48370497,70.01350772,61.27208405
70.48992281,70.10184391,61.29245283
70.63196827,70.30563894,61.45358062
70.65437393,70.39901372,61.45647513
70.77101201,70.57161235,61.56303602
70.83179674,70.70894082,61.60709691
70.87146226,70.86867496,61.67978130
70.96987564,71.04020154,61.79813465
71.05585334,71.18042453,61.89762007
71.18031732,71.35205832,62.02058319
71.21162093,71.47898799,62.05424528
71.33801458,71.68578473,62.13089623
71.37607204,71.79481132,62.19125214
71.07547170,71.42324185,61.89108062
70.39279588,70.29116638,61.22126930
69.75900515,69.11599485,60.60720412
69.41295026,68.43696398,60.31818182
69.24935678,68.14858491,60.22855918
69.26704545,68.13882933,60.31035592
69.24120926,68.17517153,60.32354202
69.29545455,68.26029160,60.36127787
69.47834477,68.46633791,60.46955403
69.44993568,68.49646226,60.40919811
69.40716123,68.50879074,60.39472556
69.38368353,68.45143654,60.42935249
69.39665523,68.45090051,60.39279588
69.43760720,68.50600343,60.45561750
69.56936106,68.66798885,60.53248285
69.68932247,68.85870497,60.62928816
69.77647942,69.02948113,60.74860635
69.92517153,69.25000000,60.87307033
70.01147084,69.37768010,60.92999571
70.14933533,69.57450686,61.01082762
70.13786449,69.62521441,61.02572899
70.22148370,69.75192967,61.09262436
70.29867067,69.95111492,61.22963122
70.36159949,70.05177959,61.29427530
70.49388937,70.28977273,61.39526158
70.41487993,70.22491424,61.31903945
69.96912521,69.50728988,60.83211835
69.30135077,68.43664237,60.29877787
68.80724700,67.63164666,59.86385077
68.61256432,67.28537736,59.74935678
68.55403087,67.21312178,59.74764151
68.58704974,67.27830189,59.84155232
68.72180532,67.42763722,59.87167667
68.88239708,67.69800600,60.01447256
68.95454545,67.80617496,60.09841338
68.97319897,67.86406518,60.10934820
68.94200257,67.86996141,59.95165094
68.97662950,67.88421955,60.10441681
69.05789022,67.99206690,60.17624357
69.13657804,68.11835334,60.19210978
69.35516724,68.37960978,60.45465266
69.40608919,68.57654374,60.39644082
69.55713979,68.79213122,60.50203688
69.64225986,68.95465266,60.63261149
69.81292882,69.17099057,60.77497856
69.89869211,69.33587050,60.82579331
69.96837479,69.46623070,60.88947256
70.06743139,69.65683962,61.01318611
70.11888937,69.74431818,61.03912950
70.21247856,69.94768439,61.14043739
70.30638937,70.08812178,61.23734991
70.39150943,70.22620069,61.31003431
70.51565180,70.47770154,61.48241852
70.53795026,70.60162950,61.49078045
70.69296741,70.81689537,61.62928816
70.71408662,70.92399228,61.67313465
70.83908662,71.13432676,61.79599057
70.94371784,71.32579331,61.86974700
70.78677101,71.15984134,61.69929245
70.01168525,69.94007290,60.97416381
69.14097341,68.42270583,60.18750000
68.54481132,67.38336192,59.71826758
68.19436106,66.85988422,59.45765437
68.14279588,66.77337050,59.43203259
68.06657376,66.67720840,59.35002144
67.96462264,66.57139794,59.32054031
68.02626501,66.66005575,59.33737136
68.14483276,66.81893225,59.51189966
68.22148370,66.94704117,59.50728988
68.24174528,67.00117925,59.55113636
68.27508576,67.04674099,59.61878216
68.31861063,67.11170669,59.71183533
68.46773156,67.30049314,59.70958405
68.59080189,67.45808319,59.84401801
68.68353345,67.65051458,59.89579760
68.88078902,67.91552316,60.07482847
68.94982847,68.05767581,60.14515437
69.12467839,68.30456690,60.33608491
69.21258576,68.48274014,60.40662521
69.30253002,68.61106346,60.36899657
69.41745283,68.76479417,60.49313894
69.48059605,68.88368353,60.59937822
69.58265437,69.06164237,60.60473842
69.64033019,69.21987564,60.70293739
69.76211407,69.39783448,60.81936106
69.82740137,69.56346484,60.88464837
69.85398799,69.65651801,60.87500000
69.34240995,68.92002573,60.40737564
68.49560463,67.59337479,59.72995283
67.84884220,66.51565180,59.18439108
67.50761149,66.00032161,58.89376072
67.39912093,65.87081904,58.84444683
67.36449400,65.85634648,58.87178388
67.38336192,65.84948542,58.88893654
67.49849914,66.03687822,59.00986278
67.63722127,66.22534305,59.17645798
67.74378216,66.36728130,59.21891081
67.75032161,66.40298027,59.20636792
67.77251286,66.44060892,59.23263293
67.80692539,66.47888079,59.23681389
67.88786449,66.59691252,59.30960549
68.05649657,66.85452401,59.42270583
68.16187822,67.02058319,59.56346484
68.28216123,67.25364494,59.67452830
68.41788165,67.42624357,59.81132075
68.53076758,67.61052744,59.87810892
68.68278302,67.78033877,59.94543310
68.67377787,67.89054460,59.96901801
68.80606775,68.03205403,60.07515009
68.85988422,68.14676244,60.08951544
68.98906518,68.33040309,60.15308748
69.04888508,68.45325901,60.20347341
69.16906089,68.63304031,60.34659091
69.25975557,68.81314322,60.43707118
69.34509005,69.00160806,60.45701115
69.44264580,69.17099057,60.57879503
69.49463979,69.33297599,60.64451115
69.61406518,69.51372213,60.73842196
69.68771441,69.64097341,60.77497856
69.74088765,69.80328045,60.89097341
69.87435678,69.98777873,60.98006003
69.85720412,70.00857633,60.95690395
69.30456690,69.22502144,60.43792882
68.43889365,67.79352487,59.66123499
67.71140652,66.60441681,59.19339623
67.41906089,66.06421527,58.88239708
67.27808748,65.86963979,58.75428816
67.27390652,65.87124786,58.82472127
67.28559177,65.92131218,58.81367925
67.43492710,66.14268868,59.00482419
67.51918954,66.31185678,59.10345197
67.59262436,66.38614923,59.10677530
67.57354202,66.36749571,59.06260720
67.51436535,66.27894511,58.97920240
67.56282161,66.39837050,59.05145798
67.62403516,66.46944683,59.13925815
67.80821184,66.70808319,59.32236278
67.96837479,66.95486707,59.45122213
68.10388079,67.15619640,59.50653945
68.24088765,67.36953259,59.57965266
68.34862779,67.54395369,59.69382504
68.44371784,67.69972127,59.80242281
68.48488422,67.79041595,59.81185678
68.64633362,68.00761149,59.88861492
68.75954117,68.19135935,59.94757719
68.85355918,68.38700686,60.06346484
68.78205403,68.37360635,60.01597341
68.21462264,67.55081475,59.54802744
67.44018010,66.31003431,58.92945969
66.79684820,65.35581046,58.34080189
66.52208405,64.98241852,58.14236707
66.47427101,64.86106346,58.08640652
66.47545026,64.89247427,58.11481561
66.54781304,65.01415094,58.19854202
66.70422384,65.22223413,58.37081904
66.85827616,65.43674957,58.44768439
66.91069897,65.55478130,58.52090480
66.97137650,65.63454117,58.55585334
67.01854631,65.69414666,58.59723413
67.06882504,65.79223842,58.65287307
67.25911235,66.00460978,58.83822899
67.43878645,66.25225129,58.97802316
67.59026587,66.46762436,59.10012864
67.76586621,66.73734991,59.28344768
67.86610206,66.91734563,59.29749142
67.95690395,67.10334477,59.36106346
68.12167667,67.27669383,59.42184820
68.25632504,67.48767153,59.54127358
68.37199828,67.66402230,59.71269297
68.42667238,67.79373928,59.74549743
68.59487564,68.04127358,59.84809177
68.70390223,68.22963122,60.00000000
68.81614494,68.47780875,60.14461835
68.95711835,68.68975129,60.18160377
68.99474700,68.86503002,60.30413808
69.17045455,69.12521441,60.39000858
69.26650943,69.29888508,60.51586621
69.41691681,69.54041595,60.63261149
69.49463979,69.70218696,60.72169811
69.59326758,69.88572041,60.84305317
69.70358062,70.08136792,60.90941252
69.75514580,70.21912521,60.98156089
69.82836621,70.39804889,61.03612779
69.70325901,70.29824185,60.95111492
68.82622213,69.04105918,60.11417238
67.87371355,67.33233276,59.33104631
67.16466552,66.13379074,58.72469983
66.86867496,65.58265437,58.44822041
66.74463979,65.39922813,58.36449400
66.73370497,65.37993139,58.36578045
66.67763722,65.28741424,58.29234563
66.78066038,65.39879931,58.42517153
66.85377358,65.51865352,58.50042882
66.98391938,65.68439108,58.58147513
67.01854631,65.72244854,58.61781732
67.02358491,65.74571184,58.64408233
67.09433962,65.88829331,58.66552316
67.18096055,65.99078045,58.79459691
67.39590480,66.25310892,58.95250858
67.54020154,66.45829760,59.01618782
67.69082333,66.71612350,59.18331904
67.86277873,66.92945969,59.29331046
67.98595626,67.11567324,59.38882933
68.10688250,67.30306604,59.53376930
68.17667238,67.46054889,59.56925386
68.28205403,67.64440395,59.66948971
68.35248714,67.77744425,59.68567753
68.52251286,68.03451973,59.85463122
68.61781732,68.20808319,59.87039022
68.71869640,68.42624357,60.01865352
68.85698971,68.64579760,60.14901372
68.99678388,68.83211835,60.23027444
69.06432247,69.00471698,60.31475129
69.11771012,69.15608919,60.40759005
69.25128645,69.37928816,60.51136364
69.35698971,69.52337050,60.57847341
69.47416381,69.75203688,60.75546741
69.38754288,69.70336621,60.69114494
68.61374357,68.64590480,59.85345197
67.80231561,67.14043739,59.20711835
67.07107633,65.98038165,58.52798027
66.76039880,65.45572470,58.36417238
66.68932247,65.30617496,58.31968268
66.73456261,65.36556604,58.34669811
66.77036878,65.41809605,58.40137221
66.89944254,65.61084906,58.44403945
67.02540738,65.83286878,58.64762007
67.05027873,65.91970412,58.58887221
67.06228559,65.91670240,58.61824614
67.03998714,65.86545883,58.58801458
67.08640652,65.90437393,58.64065180
67.22995283,66.08951544,58.84230274
67.37135506,66.27272727,58.93503431
67.57139794,66.57418525,59.06989708
67.64097341,66.75846913,59.13775729
67.84616209,66.98595626,59.30027873
67.95679674,67.16991852,59.37725129
68.07021870,67.34830617,59.49195969
68.12349914,67.52272727,59.55531732
68.24463979,67.69832762,59.65394511
68.35891938,67.86642367,59.73949400
68.42345626,67.99721269,59.76629503
68.52862350,68.17978130,59.79406089
68.29856346,67.86653087,59.60816895
67.51693825,66.76243568,58.96290738
66.76189966,65.57171955,58.33758576
66.33501286,64.90941252,57.99388937
66.22309177,64.66434391,57.87403516
66.20979846,64.64997856,57.93042453
66.33897942,64.82783019,58.05510292
66.49667667,65.08008148,58.20165094
66.72845197,65.39461835,58.37875214
66.81099914,65.51704545,58.44393225
66.81657376,65.53719983,58.42442110
66.81753859,65.54845626,58.40115780
66.78291166,65.57043310,58.40705403
66.94521870,65.72266295,58.58608491
67.10366638,65.93921527,58.68213979
67.23917238,66.20165094,58.73831475
67.44521870,66.44436106,58.96687393
67.58243997,66.68192539,59.06893225
67.74796312,66.91648799,59.23745712
67.78945111,67.02830189,59.25836192
67.95979846,67.25096484,59.39633362
68.05660377,67.44468268,59.45990566
68.10838336,67.60881218,59.52176244
68.24731990,67.82171955,59.62231990
68.35656089,67.98842196,59.67024014
68.47180532,68.18535592,59.78226844
68.57257719,68.41455832,59.90791166
68.71312178,68.61942539,60.08254717
68.79384648,68.81507290,60.12853774
68.86899657,68.92345626,60.19296741
69.01779588,69.23820755,60.28387650
69.15716123,69.42324185,60.49614065
69.23091767,69.59541166,60.54395369
68.81357204,69.11159949,60.08972985
67.74603345,67.44543310,59.25203688
66.79995712,65.85055746,58.35741852
66.25943396,64.93889365,57.91144940
66.03527015,64.56142796,57.71344340
66.02980274,64.51758148,57.74099485
65.97930961,64.47352058,57.69736278
65.97051887,64.47244854,57.70979846
66.10313036,64.62778731,57.87264151
66.25536021,64.85698971,57.96162093
66.35881218,64.97094768,58.09680532
66.35452401,65.00246569,58.05135077
66.39987136,65.06239280,58.15030017
66.40608919,65.11963979,58.09562607
66.60398799,65.36878216,58.31475129
66.77401372,65.57954545,58.48027444
66.90147942,65.79577616,58.52219125
67.09251715,66.04298885,58.70508148
67.22201973,66.24045883,58.80306604
67.37178388,66.46805317,58.94897084
67.46140652,66.63164666,58.99656947
67.55156518,66.77969554,59.08158233
67.69586192,66.99710549,59.19114494
67.76993997,67.15201544,59.24185249
67.88196827,67.34165952,59.34101630
67.99924957,67.52669383,59.49131647
68.14290309,67.75546741,59.54706261
68.23638508,67.95786878,59.59830617
68.23563465,68.01457976,59.61921098
67.57257719,67.06442967,59.05735420
66.64418954,65.59530446,58.27004717
65.94982847,64.52186964,57.68567753
65.61084906,64.00643225,57.40608919
65.54920669,63.90019297,57.35688250
65.53344768,63.93267581,57.37457118
65.59744854,64.00182247,57.44564751
65.76886792,64.25793310,57.62264151
65.94886364,64.47223413,57.74560463
66.09101630,64.67377787,57.87146226
66.08587050,64.71451544,57.86417238
66.12575043,64.77004717,57.88925815
66.18042453,64.83587050,57.91027015
66.36856775,65.06861063,58.13486278
66.52830189,65.26608062,58.27165523
66.62757290,65.51586621,58.32225557
66.88475557,65.81185678,58.50203688
67.03805746,66.04942110,58.63775729
67.20165094,66.25310892,58.76275729
67.26500858,66.39493997,58.88100343
67.42506432,66.61095626,58.99796312
67.50611063,66.77583619,59.04513293
67.61545883,66.95572470,59.08522727
67.77219125,67.20207976,59.24646226
67.84037307,67.35023585,59.34230274
68.00675386,67.61374357,59.43406947
68.13293310,67.80660377,59.52015437
68.21783877,68.00021441,59.65137221
68.37810892,68.25503859,59.72545026
68.45132933,68.42216981,59.82332762
68.59637650,68.66027015,59.93578473
68.68181818,68.83940823,60.05874786
68.82493568,69.04298885,60.16563036
68.93985849,69.26747427,60.33758576
69.02069039,69.42034734,60.36417238
69.13700686,69.63722127,60.44746998
68.85334477,69.39236707,60.18353345
67.93717839,68.08597770,59.39236707
67.11245712,66.49517581,58.65662521
66.45272298,65.40255146,58.12124786
66.22051887,64.93149657,57.91155660
66.13936535,64.85548885,57.90523156
66.15598199,64.88282590,57.92870926
66.21762436,64.99614065,57.96590909
66.42817324,65.26029160,58.16831046
66.54406089,65.42249142,58.27069039
66.49624786,65.43578473,58.20722556
66.51297170,65.43792882,58.24517581
66.50042882,65.41831046,58.24292453
66.53398370,65.46601630,58.21601630
66.67720840,65.61224271,58.42270583
66.87210549,65.87810892,58.57322041
66.99967839,66.06292882,58.60023585
67.17624357,66.31260720,58.79802744
67.29213122,66.52840909,58.86588765
67.36020583,66.68717839,58.89879931
67.50857633,66.87028302,59.08168954
67.56067753,66.99078045,59.10870497
67.71601630,67.16713122,59.23509863
67.75042882,67.27637221,59.28237564
67.85656089,67.51650943,59.36899657
67.96955403,67.72105489,59.42216981
68.03012436,67.85623928,59.48895798
68.05231561,67.88614923,59.52229846
67.39472556,67.04438250,58.96698113
66.62006861,65.72041166,58.33447684
65.98456261,64.73113208,57.69318182
65.74003002,64.32643654,57.46280017
65.70722556,64.26511578,57.50696827
65.73606346,64.31861063,57.50600343
65.91831046,64.54524014,57.75986278
66.16563036,64.90319468,58.00503859
66.33919383,65.15201544,58.08383362
66.37457118,65.20990566,58.08490566
66.38003859,65.22352058,58.14268868
66.37628645,65.22770154,58.12778731
66.45969125,65.30081475,58.17688679
66.56282161,65.49463979,58.26972556
66.70615352,65.72244854,58.44114494
66.90919811,66.01554460,58.60559605
67.07890223,66.26114923,58.69596913
67.25117925,66.50010720,58.89526158
67.36717410,66.73402659,59.01018439
67.49324614,66.91177101,59.01490137
67.62092624,67.10120069,59.17109777
67.66327187,67.24646226,59.18814322
67.83951544,67.46816038,59.35430961
67.92538593,67.62049743,59.37500000
68.04663379,67.85216552,59.57858062
68.17238422,68.09090909,59.61513722
68.27637221,68.28687822,59.73885077
68.41262864,68.53891509,59.82900943
68.52401372,68.71891081,59.94468268
68.67206261,68.95894082,60.10109348
68.76854631,69.18149657,60.23252573
68.87199828,69.34090909,60.30488851
68.99142367,69.51822470,60.44039451
69.13711407,69.78698542,60.53527015
69.15748285,69.87103345,60.53419811
68.32536449,68.88111063,59.79341767
67.26779588,67.09498285,58.88336192
66.45411664,65.56689537,58.19296741
66.02358491,64.74313894,57.74635506
65.82965266,64.42677959,57.55306604
65.79577616,64.36481561,57.53269726
65.78033877,64.36395798,57.62382075
65.80499571,64.38282590,57.63196827
65.98970840,64.58361921,57.76951115
66.04095197,64.75385935,57.80145798
66.09798456,64.82933105,57.90351630
66.14536878,64.84777015,57.90887650
66.16177101,64.87339194,57.95293739
66.28559177,65.00836192,58.05531732
66.42720840,65.21194254,58.13454117
66.60141509,65.44403945,58.26265009
66.71826758,65.64858491,58.36942539
66.92388508,65.92345626,58.55338765
67.06207118,66.16048456,58.66713122
67.16530875,66.32504288,58.68524871
67.29202401,66.52465695,58.85120069
67.38454117,66.67356346,58.92935249
67.51650943,66.90930532,59.10977702
67.63840051,67.07429245,59.17892367
67.77358491,67.33404803,59.29073756
67.91906089,67.48852916,59.43106775
68.08040309,67.77229846,59.52058319
68.20293739,68.00568182,59.62896655
68.31250000,68.23617067,59.70015009
68.45840480,68.45904803,59.82268439
68.53880789,68.63572041,59.88657804
68.68503431,68.87993139,60.03494854
68.80092196,69.07943825,60.19671955
68.76179245,69.14429674,60.15930532
67.98295455,68.13840051,59.41841767
67.01693825,66.44789880,58.62950257
66.32557890,65.16219983,57.97137650
65.89536878,64.50514580,57.62156947
65.80017153,64.30574614,57.58168954
65.77283448,64.26618782,57.58394082
65.77530017,64.33855060,57.62864494
65.88550600,64.47148370,57.69897084
66.08415523,64.71558748,57.89762007
66.17474271,64.87500000,57.96762436
66.17141938,64.85966981,57.90748285
66.18932247,64.86771012,57.92367067
66.20422384,64.89611921,57.96301458
66.32579331,65.04298885,58.02605060
66.46848199,65.25214408,58.15909091
66.58844340,65.46194254,58.30370926
66.78784305,65.70658233,58.45422384
66.91005575,65.91134220,58.57343482
67.08168954,66.13293310,58.71526587
67.16155660,66.29984991,58.78269726
67.30596055,66.48391938,58.87371355
67.36492281,66.64901372,58.88207547
67.44596913,66.79095197,58.94039451
67.59348199,66.98906518,59.10484563
67.69457547,67.16198542,59.20551029
67.82740137,67.39751286,59.35463122
67.70979846,67.31936106,59.14869211
67.09176672,66.43203259,58.67324185
66.24506861,65.11149228,57.92731561
65.70025729,64.17131218,57.41981132
65.43964408,63.80456690,57.23274014
65.40544597,63.72126930,57.23842196
65.45604631,63.83319039,57.33640652
65.60066467,64.03376930,57.46172813
65.79159520,64.37135506,57.53709262
65.98070326,64.63207547,57.73649228
66.01297170,64.66305746,57.77304889
65.98413379,64.64451115,57.75450257
65.99163808,64.64493997,57.77165523
66.04931389,64.72084048,57.83147513
66.20829760,64.92013293,57.95679674
66.36535163,65.14258148,58.09991424
66.54984991,65.40147942,58.25889794
66.71237136,65.64590480,58.41241424
66.85216552,65.87553602,58.54256003
66.93449828,66.03569897,58.56442967
67.10891938,66.26586621,58.66873928
67.21537307,66.42442110,58.76447256
67.31646655,66.60184391,58.81560892
67.45979846,66.79792024,59.02798027
67.55906947,67.00203688,59.09873499
67.67152659,67.19339623,59.14901372
67.75182247,67.37253431,59.23874357
67.89161664,67.62596484,59.37210549
67.99828473,67.81732419,59.44789880
68.10441681,68.03516295,59.57804460
68.23113208,68.26886792,59.66380789
68.31903945,68.40973413,59.75385935
68.46858919,68.66927530,59.91112779
68.60849057,68.87628645,59.98198971
68.43878645,68.74624786,59.83951544
67.47105489,67.46483705,59.07675815
66.45111492,65.66359348,58.10956261
65.74678388,64.46719554,57.54502573
65.34744854,63.84594768,57.22459262
65.28044597,63.68096055,57.14665523
65.22116209,63.63754288,57.12489280
65.24946398,63.66756003,57.16241424
65.32815180,63.83651372,57.22695111
65.46923242,64.02454974,57.38861492
65.59048027,64.18481990,57.52165523
65.61127787,64.23177530,57.46183533
65.64311750,64.27497856,57.48681389
65.71419383,64.35934820,57.57439966
65.78066038,64.48006003,57.64322470
65.97727273,64.72877358,57.81046312
66.16091338,64.96258576,57.95143654
66.32214837,65.23681389,58.12532161
66.46376501,65.43696398,58.20604631
66.61460120,65.66005575,58.26147084
66.73895798,65.86610206,58.42249142
66.80810463,65.99807033,58.49785592
66.94286021,66.20679674,58.59123070
67.06335763,66.38561321,58.76897513
67.23574185,66.63003859,58.84123070
67.31164237,66.79770583,58.95057890
67.44253859,67.05403087,59.05488851
67.55671098,67.26833190,59.13368353
67.70969125,67.52701544,59.23456261
67.84648370,67.73885077,59.32611492
67.93160377,67.92560034,59.43267581
68.08833619,68.16659520,59.61878216
68.17581475,68.35977702,59.65780446
68.31914666,68.59530446,59.78183962
68.40105060,68.78505575,59.85237993
68.53194683,68.99271012,60.01093482
68.54952830,69.07718696,60.05789022
67.80381647,68.17259863,59.30939108
66.80403087,66.52165523,58.49914237
65.94210978,65.04373928,57.81710978
65.56442967,64.31078473,57.38711407
65.43835763,64.07343482,57.31099914
65.41670240,64.04020154,57.31678816
65.45283019,64.08597770,57.37542882
65.51018439,64.19200257,57.41477273
65.68342624,64.41627358,57.63775729
65.75418096,64.55499571,57.60345197
65.79331046,64.61578045,57.66187822
65.80403087,64.63507719,57.66616638
65.79577616,64.65169383,57.65941252
65.91230703,64.76222127,57.78280446
66.06678816,64.95100772,57.92270583
66.20551029,65.16906089,58.00868353
66.35956261,65.40051458,58.18867925
66.55006432,65.68642796,58.24281732
66.69661235,65.89258148,58.40973413
66.75053602,66.05156518,58.42635077
66.91498714,66.26125643,58.63175386
66.93953688,66.38357633,58.65265866
67.09809177,66.58629931,58.82171955
67.16723842,66.75278731,58.81861063
67.26286449,66.90909091,58.93074614
67.32975986,67.12607204,58.98734991
67.44907804,67.31014151,59.09165952
67.57011149,67.49035163,59.18374786
67.19286021,67.07279160,58.87725129
66.41777444,65.78376930,58.17184820
65.63668525,64.57450686,57.48123928
65.22319897,63.86299314,57.09048027
65.09369640,63.65244425,57.01522298
65.03183962,63.60816895,57.03312607
65.20325901,63.80939108,57.20025729
65.39740566,64.10645369,57.38754288
65.65855489,64.44028731,57.55842624
65.70261578,64.56946827,57.61234991
65.72566467,64.61031304,57.59766295
65.69189537,64.56518010,57.59219554
65.68021012,64.57407804,57.58136792
65.76672384,64.68031732,57.66809605
65.91037736,64.87199828,57.77079760
66.09830617,65.15533877,57.94264580
66.24442539,65.37585763,58.09819897
66.40458834,65.62928816,58.20733276
66.55917667,65.85184391,58.30553173
66.67506432,66.05456690,58.38282590
66.81657376,66.27240566,58.57386364
66.87081904,66.42013293,58.60066467
66.95894082,66.60323756,58.68278302
67.04427530,66.74710549,58.75653945
67.18889365,66.96162093,58.90909091
67.25096484,67.13282590,58.92763722
67.35677530,67.33533448,59.11256432
67.52122642,67.55617496,59.18739280
67.59005146,67.73198971,59.24463979
67.75621784,67.95368782,59.33940823
67.84680532,68.14140223,59.45936964
68.00632504,68.36610206,59.57064751
68.05928388,68.56550172,59.66434391
68.23306175,68.76650943,59.83083190
68.24195969,68.87918096,59.79706261
67.46730274,67.90726844,59.10002144
66.35216552,66.16648799,58.19993568
65.52990995,64.62596484,57.44607633
65.12896655,63.89440395,57.01854631
64.96590909,63.59734134,56.89322470
64.97266295,63.59980703,56.91734563
64.97234134,63.63057461,56.96633791
65.04234563,63.74410377,57.05092196
65.22834477,64.01865352,57.20132933
65.29427530,64.09316038,57.28269726
65.34358919,64.16948971,57.30156518
65.35548885,64.19018010,57.34777015
65.38153945,64.22266295,57.36996141
65.50021441,64.35656089,57.44854202
65.61406518,64.52658662,57.50171527
65.78441252,64.79427530,57.65769726
65.92088336,65.01329331,57.79331046
66.12489280,65.29984991,57.96580189
66.20390223,65.47126930,57.92624357
66.35881218,65.68964408,58.11781732
66.49206690,65.90973413,58.22255575
66.61460120,66.08115352,58.35774014
66.75879074,66.31389365,58.51179245
66.78687822,66.44789880,58.55638937
66.92506432,66.71858919,58.70765437
67.06828902,66.91627358,58.75117925
67.19907804,67.13282590,58.89483276
67.35388079,67.38132504,59.02069039
67.44457547,67.56485849,59.06828902
67.59187393,67.84230274,59.25589623
67.70207976,68.00010720,59.31507290
67.85870497,68.25042882,59.47212693
67.95518868,68.47620069,59.54867067
68.08243997,68.64526158,59.68750000
68.25192967,68.91873928,59.85012864
68.04824185,68.73885077,59.68374786
67.04363208,67.48252573,58.74367496
66.09830617,65.74474700,58.05306604
65.44200257,64.49581904,57.35859777
65.14826329,63.96387221,57.07686535
65.01168525,63.78998714,56.96644511
65.04674099,63.84305317,57.02337050
65.07397084,63.89622642,57.08018868
65.22180532,64.10259434,57.15769726
65.42281304,64.34798456,57.34927101
65.43975129,64.38529160,57.35334477
65.46451544,64.41884648,57.35087907
65.45529588,64.41219983,57.32193396
65.47555746,64.45797599,57.38121784
65.57493568,64.59187393,57.49453259
65.70626072,64.81539451,57.61363636
65.90523156,65.04909949,57.75557461
66.03816467,65.24721269,57.88700686
66.20690395,65.52551458,58.05124357
66.32515009,65.70250858,58.12296312
66.49764151,65.95561750,58.28387650
66.56571612,66.11031304,58.35323756
66.67206261,66.28912950,58.48531304
66.74849914,66.42967410,58.44232419
66.78644940,66.57783019,58.56818182
66.94961407,66.80853345,58.69125214
67.03698542,67.02390652,58.80521012
67.14183105,67.16520154,58.84594768
66.68717839,66.69146655,58.48949400
65.90919811,65.40169383,57.77240566
65.20883362,64.21033448,57.11620926
64.76865352,63.49442539,56.78966552
64.60816895,63.27733705,56.61438679
64.65791166,63.34594768,56.68235420
64.83951544,63.53591338,56.89333190
65.05917667,63.88614923,57.03344768
65.27744425,64.19082333,57.20004288
65.29577616,64.28141081,57.25868353
65.31089194,64.30660377,57.23241852
65.32536449,64.29105918,57.28033877
65.30864065,64.26447256,57.23531304
65.40705403,64.37296312,57.35109348
65.53280446,64.55746141,57.46333619
65.73788593,64.82515009,57.60388079
65.88475557,65.05778302,57.77605060
66.03987993,65.32718696,57.88850772
66.19564751,65.56185678,58.04148799
66.26843911,65.73306175,58.11771012
66.41391509,65.95079331,58.25203688
66.45668954,66.06882504,58.27079760
66.57171955,66.28162521,58.36674528
66.65694683,66.43096055,58.40437393
66.78055317,66.64569039,58.50032161
66.88893654,66.81775300,58.64236707
66.98188250,66.99303173,58.68406947
67.09594768,67.20593911,58.78784305
67.18353345,67.36856775,58.89472556
67.34262436,67.58211835,59.04609777
67.45583190,67.77251286,59.09734134
67.43417667,67.93932247,59.11899657
66.72298456,67.01114923,58.52680103
65.69543310,65.27326329,57.53934391
64.88604202,63.87939537,56.89376072
64.43771441,63.15383791,56.42785163
64.34358919,62.93299743,56.38754288
64.34927101,62.93353345,56.41509434
64.41659520,63.03880789,56.52765866
64.54641938,63.21365780,56.63968696
64.72791595,63.47877358,56.80210120
64.88464837,63.71012007,56.92195540
64.89826329,63.74967839,56.88582762
64.97566467,63.85002144,56.94564751
65.11417238,63.95293739,57.04942110
65.27294168,64.14987136,57.17431389
65.46108491,64.40319468,57.27540738
65.66820326,64.68792882,57.42077616
65.91938250,65.02508576,57.64515437
66.11567324,65.35237993,57.78312607
66.29781304,65.68481990,57.94232419
66.42388508,65.88893654,58.11556604
66.46891081,66.10934820,58.12264151
66.50546741,66.22201973,58.17013293
66.52808748,66.37500000,58.22662950
66.60881218,66.54406089,58.28291166
66.70894082,66.69693396,58.38925815
66.76736707,66.85849057,58.43589194
66.87639365,67.01940395,58.52004717
67.02883791,67.24581904,58.59015866
67.12424957,67.44800600,58.73445540
67.22352058,67.59637650,58.86738851
67.28376930,67.84423242,58.92506432
67.43021012,68.00589623,59.04363208
67.59305317,68.24271012,59.18825043
67.62231990,68.35045026,59.20658233
66.74163808,67.38850772,58.48649228
65.39622642,65.50578902,57.39386792
64.54191681,63.92699400,56.59444683
64.06260720,63.03837907,56.10141509
63.80981990,62.64258148,55.93310463
63.80971269,62.60323756,55.93964408
63.74571184,62.47448542,55.91788165
63.77176244,62.49817753,55.92892367
63.83319039,62.59584048,56.02958834
64.00343053,62.80767581,56.16316467
64.01543739,62.84455403,56.14172384
63.98874357,62.80499571,56.13904374
64.03784305,62.86781732,56.11245712
64.10838336,62.94693396,56.13947256
64.32761578,63.22277015,56.42495712
64.46548027,63.41187822,56.51072041
64.68460549,63.71526587,56.69146655
64.87467839,63.98252573,56.83029588
65.01329331,64.17409949,56.94125214
65.19832762,64.44168096,57.07418525
65.29824185,64.60334477,57.22791595
65.41734563,64.84165952,57.30821184
65.55145798,65.02808748,57.37971698
65.67356346,65.22073328,57.54127358
65.80424528,65.45583190,57.65544597
65.93106775,65.63218268,57.82836621
66.08833619,65.88143225,57.94468268
66.21226415,66.15973413,57.98820755
66.42517153,66.46590909,58.23349057
66.61695969,66.74646226,58.32429245
66.71440823,66.95861921,58.40265866
66.92377787,67.18942967,58.57386364
67.05231561,67.44746998,58.72105489
67.17828045,67.65555317,58.90147942
66.83758576,67.33308319,58.54041595
65.71826758,65.92388508,57.67881647
64.75010720,64.24967839,56.76897513
64.17806604,63.17356346,56.22716552
63.90244425,62.70969125,55.98992281
63.86663808,62.61663808,55.97148370
63.89536878,62.63722127,55.99249571
63.92731561,62.68246141,56.00621784
64.15222985,62.94939966,56.26243568
64.22855918,63.07654374,56.28923671
64.28023156,63.14429674,56.31603774
64.25321612,63.14858491,56.29416810
64.26457976,63.13400515,56.32911664
64.34123070,63.20915523,56.38818611
64.40351630,63.32611492,56.42838765
64.56314322,63.51683105,56.50611063
64.73874357,63.77647942,56.72159091
64.92731561,64.04180961,56.91766724
65.03484134,64.23038165,57.02583619
65.18128216,64.45122213,57.14097341
65.30177959,64.66305746,57.22802316
65.42828045,64.82322041,57.34337479
65.51468696,64.99667667,57.41091338
65.54266724,65.11599485,57.46526587
65.62392796,65.35570326,57.49506861
65.75879074,65.48542024,57.58876501
65.89837050,65.69639794,57.73627787
65.70861921,65.41445111,57.53666381
64.77304889,64.20636792,56.76039880
63.96708834,62.90319468,56.05713979
63.43481990,62.09262436,55.56132075
63.26157804,61.75771870,55.36578045
63.22705832,61.73241852,55.40137221
63.31400086,61.86588765,55.51340051
63.50514580,62.11149228,55.69639794
63.70347341,62.39922813,55.85913379
63.82986707,62.57879503,55.99281732
63.79631218,62.56196398,55.93696398
63.77272727,62.55081475,55.90373070
63.77358491,62.56260720,55.90951973
63.90201544,62.69725557,56.01865352
64.09123070,62.96129931,56.16563036
64.24774871,63.17484991,56.28634220
64.44993568,63.44757719,56.49153087
64.57032590,63.64236707,56.58340480
64.76072041,63.88507719,56.74185249
64.88036021,64.07075472,56.88765009
65.03066038,64.29652659,56.97341338
65.08211835,64.43889365,57.02401372
65.22587907,64.68063894,57.15490995
65.33640652,64.84262436,57.20926244
65.45454545,65.02144082,57.32590051
65.62199828,65.30081475,57.46097770
65.72652230,65.49924957,57.61674528
65.88743568,65.77401372,57.73692110
65.94757719,65.95529588,57.76382933
66.13572041,66.20325901,57.96612350
66.29245283,66.42495712,58.07997427
66.45679674,66.70186535,58.26404374
66.63840051,66.92870926,58.32493568
66.34369640,66.71633791,58.11385077
65.10709691,65.19972127,57.12639365
64.05124357,63.33704974,56.13614923
63.29727702,62.09251715,55.50225129
62.98852916,61.52176244,55.16948971
62.90587479,61.39129503,55.12950257
62.85827616,61.35784734,55.09755575
62.80199400,61.25225129,55.06678816
62.88539880,61.36867496,55.15040738
63.00364494,61.58404803,55.29909949
63.09701973,61.71708834,55.35538165
63.15458834,61.76993997,55.37285592
63.17560034,61.82139794,55.43289022
63.23177530,61.89922813,55.44875643
63.34391081,62.02594340,55.53259005
63.53655660,62.27883791,55.71687393
63.68224700,62.50278731,55.87221269
63.88421955,62.76222127,55.97469983
64.03730703,63.01329331,56.13807890
64.17163379,63.19886364,56.25975557
64.35441681,63.42688679,56.41487993
64.39740566,63.55328045,56.48059605
64.57204117,63.77680103,56.60055746
64.64762007,63.92099057,56.71923242
64.82750858,64.17334906,56.84980703
64.96129931,64.36524443,56.98552744
64.99431818,64.58351201,56.96215695
65.18042453,64.80671098,57.15726844
65.26275729,64.99689108,57.26061321
65.44918525,65.20090051,57.40158662
65.54631218,65.37800172,57.46569468
65.73070326,65.63057461,57.56710978
65.86631647,65.84594768,57.71344340
65.90351630,65.98627787,57.79845626
65.34069468,65.35463122,57.25428816
64.14729846,63.62714408,56.24485420
63.24539022,62.18985849,55.44371784
62.79770583,61.34744854,55.04127358
62.56893225,61.02819468,54.86395798
62.56550172,60.99088765,54.85216552
62.53569897,61.00096484,54.83201115
62.57825901,61.07954545,54.91509434
62.78537736,61.32611492,55.10077187
62.92828045,61.51147084,55.24346055
62.97362779,61.60613208,55.20347341
62.97405660,61.64579760,55.23499142
63.08340480,61.73006003,55.33190395
63.14569039,61.82515009,55.38561321
63.29716981,62.06024871,55.50064322
63.47384220,62.30360206,55.67174099
63.67881647,62.56796741,55.84069468
63.79524014,62.77915952,55.97041166
63.96419383,63.01393654,56.07075472
64.16412950,63.29384648,56.24346055
64.25493139,63.43803602,56.28666381
64.42034734,63.68964408,56.48788593
64.48456261,63.80939108,56.57504288
64.59873499,64.02626501,56.62382075
64.72898799,64.22169811,56.81389365
64.87682247,64.43835763,56.87768010
65.02733705,64.66048456,57.02433533
65.08822899,64.83243997,57.06657376
65.28108919,65.09026587,57.21998285
65.37993139,65.24506861,57.32375643
65.51425815,65.44993568,57.43235420
65.65201544,65.69897084,57.55896226
65.66252144,65.81003431,57.60763293
64.93128216,64.96665952,56.92163379
63.82933105,63.34562607,55.95947684
63.02111921,61.96708834,55.30263722
62.59208834,61.21558748,54.82600772
62.46419383,61.03880789,54.77444254
62.46365780,61.01704545,54.80456690
62.54706261,61.14311750,54.91370069
62.70218696,61.34862779,55.01179245
62.85806175,61.57975986,55.19918525
62.94050172,61.69757719,55.24774871
62.90951973,61.67881647,55.21848199
62.87467839,61.64976415,55.19307461
62.87810892,61.64611921,55.15941252
63.02111921,61.80671098,55.27626501
63.16680961,61.97941681,55.46612350
63.33726415,62.20711835,55.62092624
63.51768868,62.44564751,55.70358062
63.68771441,62.69822041,55.87146226
63.80124357,62.89472556,55.98842196
63.91595197,63.06603774,56.11899657
63.99603345,63.22373499,56.16477273
64.06282161,63.38486278,56.22984563
64.19189537,63.55510292,56.34240995
64.32043310,63.76575901,56.45979846
64.42034734,63.89290309,56.55113636
64.21355060,63.67474271,56.30338765
63.35248714,62.49528302,55.56282161
62.51575901,61.28376930,54.86760292
61.99667667,60.45572470,54.41284305
61.83930103,60.26468696,54.27433533
61.87896655,60.27905232,54.29170240
61.97845197,60.43256861,54.43171098
62.20015009,60.74882075,54.70572470
62.43471269,61.07086192,54.84509005
62.57804460,61.26093482,54.96740995
62.54438250,61.24614065,54.93867925
62.57418525,61.26393654,54.90394511
62.59862779,61.31239280,54.93053173
62.64901372,61.41809605,55.01908233
62.85302316,61.65876930,55.18235420
63.00793310,61.86942539,55.28559177
63.21044168,62.16455832,55.47266295
63.38722127,62.37264151,55.61127787
63.54041595,62.63711407,55.72695111
63.66670240,62.79942110,55.83008148
63.78666381,63.00986278,56.00900515
63.87628645,63.16252144,56.06518010
63.98542024,63.30681818,56.16809605
64.12039022,63.47266295,56.26811750
64.19661235,63.65351630,56.35313036
64.31678816,63.84616209,56.47888079
64.42817324,64.04052316,56.58083190
64.56325043,64.25836192,56.62307033
64.67174099,64.46955403,56.77186964
64.74088765,64.59766295,56.84894940
64.91756003,64.82579331,57.03269726
64.97448542,64.94832762,57.04566895
64.56132075,64.49849914,56.71183533
63.33908662,62.76318611,55.62660806
62.34916381,61.18106775,54.74796312
61.71258576,60.18728559,54.17334906
61.42720840,59.74195969,53.84466123
61.42484991,59.70593911,53.90641081
61.38132504,59.67227702,53.91370069
61.42795883,59.74399657,53.94661235
61.59701973,59.95851201,54.11438679
61.78859348,60.19232419,54.28473413
61.86996141,60.33415523,54.35688250
61.89912093,60.38582762,54.37253431
61.91638079,60.41530875,54.39987136
61.93514151,60.48466981,54.41927530
62.13336192,60.71526587,54.56303602
62.31828902,60.94629074,54.71665952
62.51329331,61.24185249,54.90994854
62.69307461,61.50225129,55.07150515
62.83104631,61.67259863,55.17002573
63.00096484,61.93106775,55.30885506
63.15072899,62.09862779,55.42495712
63.28108919,62.31024871,55.55746141
63.40147942,62.51039880,55.62017581
63.50889794,62.69178816,55.74410377
63.62950257,62.87500000,55.82804460
63.73284734,63.03387650,55.92088336
63.89601201,63.31024871,56.08533448
64.08168954,63.49957118,56.23627787
64.20068611,63.71290738,56.37114065
64.31485849,63.93599914,56.46923242
64.41198542,64.11202830,56.55563894
64.57322041,64.37596484,56.76897513
64.68685678,64.51554460,56.79813465
64.87264151,64.80638937,56.91187822
64.94125214,64.92710120,57.03344768
64.28398370,64.21665952,56.43942967
63.12821612,62.51565180,55.37714408
62.13239708,60.95851201,54.56957547
61.62532161,60.10666810,54.09637650
61.37746569,59.77240566,53.82686535
61.38089623,59.77262007,53.86331475
61.40415952,59.78623499,53.89965695
61.46837479,59.89440395,53.99410377
61.67581475,60.15737564,54.19704117
61.82965266,60.37210549,54.25482419
61.90598199,60.47673671,54.39118782
61.92742281,60.47502144,54.38432676
61.96183533,60.54202401,54.41895369
62.03108919,60.65180103,54.47341338
62.22716552,60.87832333,54.66391509
62.40426672,61.13840051,54.83222556
62.53259005,61.37778731,54.94361063
62.72459262,61.62510720,55.15555317
62.86578045,61.86299314,55.25021441
63.05263722,62.06614494,55.34208834
63.15147942,62.23617067,55.44972127
63.26790309,62.44907804,55.52905232
63.36267153,62.60323756,55.58372642
63.46172813,62.75096484,55.72352058
63.60398799,62.98091767,55.84648370
63.77669383,63.14719125,56.00396655
63.96054889,63.39751286,56.12735849
64.07675815,63.62735849,56.26136364
63.97244854,63.61288593,56.17356346
63.13421955,62.48649228,55.37564322
62.14247427,61.06314322,54.55992710
61.53548456,60.05478130,54.00611063
61.16798885,59.62853774,53.68728559
61.17249142,59.57986707,53.73316895
61.17849485,59.64697684,53.76211407
61.40330189,59.91209262,53.95990566
61.64215266,60.20819039,54.21183533
61.78719983,60.42999571,54.31571612
61.82665094,60.52283448,54.33501286
61.85430961,60.55542453,54.31786021
61.92442110,60.59766295,54.32043310
61.95175815,60.65587479,54.39000858
62.13486278,60.89215266,54.60741852
62.27165523,61.11320755,54.75385935
62.46365780,61.34208834,54.88582762
62.66595197,61.61106346,55.01114923
62.78291166,61.79256003,55.14268868
62.95990566,62.00128645,55.30617496
63.07675815,62.20004288,55.36856775
63.20733276,62.40951973,55.44961407
63.30027873,62.59316038,55.61503002
63.37060463,62.71129931,55.64526158
63.54974271,62.93524871,55.86192110
63.55424528,63.11513722,55.85355918
63.74035163,63.35098628,56.03451973
63.88164666,63.52937393,56.11771012
63.99774871,63.73402659,56.25825472
64.16209262,63.99056604,56.39343911
64.26650943,64.15094340,56.43953688
64.40973413,64.36063465,56.63593482
64.54749142,64.58694254,56.73209691
64.68557033,64.80478130,56.82407804
64.80145798,64.96590909,56.89558319
64.31753859,64.43331904,56.51093482
63.12500000,62.85291595,55.54009434
62.23466981,61.27905232,54.63797170
61.65276587,60.42206261,54.10409520
61.41337907,60.03730703,53.95583190
61.40437393,60.00750429,53.97126930
61.45400943,60.11138508,54.01168525
61.64397513,60.31571612,54.16134220
61.85538165,60.62424957,54.35388079
61.95990566,60.77894511,54.46655232
62.00085763,60.82847341,54.48413379
61.98466981,60.78891509,54.47952401
61.99817753,60.82557890,54.46601630
62.11460120,60.95722556,54.61996141
62.27304889,61.12746569,54.75503859
62.44135935,61.38454117,54.85087907
62.62156947,61.64386792,54.97512864
62.79706261,61.88325472,55.14033019
62.95593911,62.10688250,55.22116209
63.10152230,62.32557890,55.41948971
63.21183533,62.53344768,55.55231561
63.28655660,62.71858919,55.58780017
63.42120497,62.92270583,55.68406947
63.46623070,62.99303173,55.69350343
63.65340909,63.22223413,55.86888937
63.79845626,63.44489708,56.03409091
63.93417667,63.67045455,56.23949400
64.01543739,63.82568611,56.26265009
63.32150515,63.00396655,55.62660806
62.27980274,61.48349057,54.75986278
61.48617067,60.23574185,53.96472985
61.07289880,59.57011149,53.61813894
60.92131218,59.34734134,53.51007719
60.90726844,59.38582762,53.55478130
60.99153087,59.50032161,53.62617925
61.17131218,59.70283019,53.77658662
61.41155660,60.03591338,54.01039880
61.56485849,60.25632504,54.16305746
61.61106346,60.33426244,54.14108062
61.62628645,60.32504288,54.20733276
61.72416381,60.43021012,54.26683105
61.85506003,60.60677530,54.39215266
62.00032161,60.80778302,54.49989280
62.25343053,61.12242710,54.73156089
62.42677959,61.39033019,54.81292882
62.55756861,61.58243997,55.01039880
62.72298456,61.82675815,55.06539451
62.87918096,62.05992710,55.25418096
63.02862350,62.25653945,55.36781732
63.13046741,62.41327187,55.44286021
63.27969554,62.62639365,55.56314322
63.35709691,62.79491852,55.66112779
63.50171527,63.07246998,55.79116638
63.63121784,63.29202401,55.92302744
63.83115352,63.54406089,56.07279160
63.97845197,63.74581904,56.21280017
64.07439966,63.94554031,56.27744425
64.28398370,64.25032161,56.48917238
64.38475557,64.40855489,56.56507290
64.56978988,64.70272298,56.71966123
64.70336621,64.92656518,56.89033019
64.84723413,65.13775729,56.95186535
65.00546741,65.32750858,57.15748285
65.13304031,65.57236278,57.19907804
65.30853345,65.80767581,57.29995712
65.15651801,65.73198971,57.18717839
64.01597341,64.39504717,56.30242281
62.75203688,62.41498714,55.19843482
61.93921527,60.95615352,54.38003859
61.50128645,60.24206690,53.94639794
61.36159949,59.99860635,53.85259434
61.32986707,59.99774871,53.83179674
61.32933105,60.01908233,53.85870497
61.48391938,60.20283019,54.04159520
61.65308748,60.41659520,54.10248714
61.81057033,60.60409520,54.32922384
61.82021870,60.62274871,54.35945540
61.84391081,60.66723842,54.30360206
61.88089623,60.72673671,54.36117067
62.00010720,60.86953259,54.49217410
62.18031732,61.12114065,54.62156947
62.37199828,61.33126072,54.76801029
62.54406089,61.62703688,54.90855489
62.62296312,61.84659091,55.00139365
62.83780017,62.11803173,55.23745712
63.00010720,62.32386364,55.40919811
63.12735849,62.52422813,55.47384220
63.25557461,62.71826758,55.60055746
63.36213551,62.92667238,55.65737564
63.50343053,63.18246141,55.83812178
63.64772727,63.34133791,55.89837050
63.83619211,63.58404803,56.11042024
63.93224700,63.83083190,56.22620069
64.07504288,64.04674099,56.30510292
64.22480703,64.30992710,56.48231132
64.35570326,64.51093482,56.55253002
64.51457976,64.74549743,56.70090051
64.67302744,64.94039451,56.77830189
64.85409520,65.23788593,57.01147084
