R,G,B
70.51983276,69.31014151,66.59251715
70.23520583,69.05231561,66.42710120
69.33447684,67.91745283,65.84412521
68.89654803,66.88218268,64.88475557
68.81078473,66.50160806,64.75096484
68.73006003,66.18696398,64.90201544
68.47684391,65.70540309,64.55789022
68.18203259,65.18353345,64.25771870
68.15201544,65.03130360,64.12800172
68.46119211,65.33812178,64.41423671
68.75160806,65.72995283,64.69629074
68.67367067,65.73284734,64.61835334
68.65265866,65.69446827,64.64000858
68.75536021,65.84240995,64.72148370
68.91541595,66.12017581,64.90533877
69.06400086,66.38132504,65.11438679
69.19736278,66.64011578,65.23316895
69.30435249,66.86395798,65.34894940
69.40694683,67.08619211,65.46569468
69.51725986,67.28719983,65.57579331
69.61706690,67.50836192,65.77101201
69.70411664,67.75192967,65.84305317
69.83436964,68.00246569,65.95808319
69.93192539,68.23638508,66.06185678
70.09819897,68.52637221,66.21933962
70.22459262,68.77562178,66.46322899
70.39676244,69.05263722,66.59101630
70.48477702,69.26758148,66.70154374
70.60559605,69.49324614,66.82986707
70.73327616,69.74163808,66.98842196
70.42892367,69.50632504,66.56807461
70.45261578,69.65158662,66.56067753
70.57150515,69.88582762,66.72309177
70.73241852,70.10784734,66.87414237
70.84937822,70.28848628,66.98895798
71.00150086,70.58190395,67.16509434
71.10806175,70.86299314,67.27615780
71.10313036,70.97041166,67.32182676
70.28248285,70.12103345,66.67870926
69.35784734,68.53430532,65.76886792
68.92731561,67.73563465,65.25836192
68.94328902,67.41563036,65.23059605
68.69468268,66.97555746,64.95411664
68.29749142,66.28076758,64.55885506
67.98756432,65.65566038,64.19725557
67.97598628,65.40008576,64.07482847
68.31142796,65.75460978,64.39397513
68.45240137,65.99442539,64.51886792
68.32300600,65.87682247,64.45765437
68.30821184,65.85495283,64.38153945
68.47126930,66.00900515,64.56325043
68.58329760,66.21172813,64.64697684
68.70057890,66.42785163,64.74774871
68.80467410,66.66102058,64.94403945
68.90201544,66.84476844,65.00814751
69.01340051,67.06614494,65.12789451
69.13496998,67.28848628,65.30821184
69.27315609,67.50128645,65.44618353
69.41027015,67.76918954,65.56078473
69.48552744,67.97030446,65.63861492
69.66337907,68.24506861,65.81903945
69.79191681,68.51147084,65.93514151
69.90105060,68.76618782,66.05885506
70.04223842,69.01157804,66.23820755
70.12521441,69.18160377,66.35420240
70.24485420,69.38036021,66.48670669
70.41970412,69.64783448,66.63089623
70.60988422,69.91906089,66.74946398
70.72759434,70.15641081,66.92056175
70.75321612,70.37328473,67.00171527
70.19307461,69.77647942,66.51961835
69.34187393,68.50418096,65.72201973
68.96740995,67.80017153,65.36427959
68.91370069,67.51511578,65.21129931
68.80949828,67.23209691,65.07021870
68.55328045,66.76725986,64.80092196
68.35259434,66.39633362,64.59380360
68.44082333,66.35548885,64.64729846
68.84723413,66.77755146,65.00632504
68.86610206,66.91112779,65.02819468
68.72352058,66.74753431,64.90791166
68.74560463,66.79856346,64.93750000
68.87328473,66.95304460,65.02958834
69.01618782,67.16541595,65.18256861
69.14869211,67.37746569,65.37103345
69.30960549,67.58812178,65.45883362
69.41487993,67.78516295,65.61256432
69.51072041,67.99078045,65.72727273
69.56303602,68.17174099,65.82418525
69.67388508,68.37414237,65.83940823
69.81957547,68.60623928,65.99367496
69.93021012,68.84637650,66.16198542
70.07257719,69.08029588,66.27605060
70.20658233,69.34487564,66.37617925
70.32547170,69.52530017,66.58554889
70.43503431,69.71698113,66.64794168
70.53923671,69.91981132,66.78023156
70.68546312,70.15694683,66.92324185
70.81689537,70.40544597,67.05467410
70.86020583,70.61771012,67.16337907
70.85977702,70.72941681,67.19875643
70.20068611,69.93524871,66.59562607
69.41745283,68.67860206,65.84712693
69.12242710,68.00064322,65.49463979
69.11052744,67.73531304,65.46172813
68.95969125,67.37478559,65.25771870
68.65791166,66.85345197,64.94393225
68.52047599,66.48188250,64.78205403
68.63078902,66.59176672,64.90265866
68.92999571,66.94993568,65.15233705
68.79781304,66.88314751,65.04588336
68.75064322,66.76522298,64.99206690
68.81250000,66.81764580,65.05735420
68.94135935,66.96858919,65.17806604
69.10355918,67.18074614,65.32740137
69.23617067,67.38818611,65.40919811
69.30724700,67.55510292,65.48734991
69.43096055,67.74656947,65.67152659
69.50643225,67.93632075,65.70690395
69.61524443,68.10645369,65.85881218
69.72920240,68.29202401,65.98156089
69.81593053,68.48917238,66.09101630
69.96644511,68.69843482,66.19822041
70.13775729,68.95207976,66.36481561
70.28709262,69.24013722,66.50407376
70.40169383,69.40490995,66.56893225
70.36234991,69.42688679,66.59584048
69.64601201,68.54802744,65.99742710
68.96430103,67.27262007,65.32257719
68.67452830,66.64922813,64.90051458
68.62564322,66.36234991,64.83190395
68.43835763,65.90469554,64.55328045
68.16380789,65.35870497,64.22427101
68.04416810,65.01758148,64.03216123
68.25814751,65.21633791,64.21269297
68.57890223,65.64451115,64.54159520
68.55263722,65.65748285,64.48938679
68.48949400,65.59026587,64.49142367
68.59026587,65.67388508,64.57997427
68.74313894,65.94168096,64.76286449
68.91680961,66.21869640,64.91252144
69.07675815,66.48263293,65.05831904
69.23059605,66.70079331,65.24281732
69.32236278,66.93171098,65.37703688
69.41873928,67.19403945,65.46762436
69.56882504,67.39772727,65.63207547
69.75450257,67.65630360,65.85248714
69.88668525,67.89354631,65.98466981
70.03987993,68.15437393,66.07547170
70.16981132,68.42710120,66.22791595
70.34927101,68.71740995,66.41595197
70.55274443,69.00707547,66.58876501
70.68321184,69.28012436,66.74131647
70.83447684,69.53816467,66.84240995
71.03066038,69.81496569,67.01029160
71.18342624,70.11352916,67.16455832
71.35849057,70.39794168,67.37778731
71.33897942,70.42088336,67.36535163
70.62564322,69.57375643,66.70047170
69.86192110,68.20132933,66.04052316
69.65308748,67.63464837,65.71312178
69.71065609,67.48831475,65.69822041
69.57064751,67.05821184,65.44093053
69.31882504,66.48542024,65.11899657
69.15137221,66.06367925,64.94189537
69.23338336,66.11331475,64.99067324
69.65094340,66.60506003,65.32054031
69.76908233,66.80381647,65.40480274
69.74131647,66.75396655,65.39247427
69.82536449,66.86074185,65.43664237
70.02937393,67.11213551,65.66809605
70.29448971,67.40105060,65.85538165
70.43364065,67.73702830,66.01490137
70.61438679,68.02798027,66.22201973
70.75128645,68.30274443,66.30167238
70.85827616,68.54781304,66.47727273
71.01565180,68.82311321,66.59927101
71.21494425,69.14804889,66.75568182
71.34165952,69.41906089,66.94972127
71.55210120,69.67924528,67.12392796
71.70283019,69.93760720,67.29738422
71.86213551,70.27680103,67.42281304
72.04298885,70.58286878,67.62875214
72.15876930,70.84616209,67.79448971
72.29942110,71.13368353,67.90490995
72.50986278,71.47684391,68.15330189
72.64815609,71.76350772,68.26801029
72.81861063,71.97598628,68.41123499
72.65319468,71.83008148,68.28183962
71.94403945,70.94854202,67.64601201
71.62457118,70.25407376,67.30681818
71.65255146,70.12532161,67.29020154
71.64976415,70.01468696,67.25289451
71.41745283,69.64451115,67.02015437
71.29599057,69.32922384,66.81250000
71.37242710,69.20690395,66.80403087
71.60205832,69.51114923,67.03344768
71.80939108,69.84133791,67.18696398
71.77873070,69.85162950,67.18160377
71.76436535,69.82933105,67.22212693
71.87778731,70.02958834,67.29223842
72.07161235,70.22105489,67.45604631
72.18985849,70.45122213,67.59723413
72.27712264,70.67742281,67.66219983
72.38893654,70.89837050,67.77572899
72.50021441,71.11985420,67.92688679
72.60538165,71.30671098,68.04599057
72.70293739,71.53698542,68.19007290
72.81142796,71.75289451,68.31014151
72.99614065,71.96848199,68.44832762
73.12146226,72.20958405,68.55220840
73.23713551,72.42388508,68.68481990
73.36631647,72.66027015,68.83286878
73.51307890,72.89129503,68.96590909
73.63647084,73.12467839,69.07472127
73.78044597,73.35291595,69.23992281
73.78505575,73.45743997,69.27647942
73.21076329,72.90716123,68.86599485
72.71140652,71.98413379,68.30338765
72.53945111,71.57418525,68.06882504
72.56057033,71.50460978,68.08394082
72.53226844,71.30821184,67.97823756
72.34991424,70.94146655,67.75793310
72.27272727,70.70947684,67.65137221
72.51843911,70.94039451,67.86985420
72.64654803,71.16412950,67.97930961
72.57515009,71.06335763,67.95207976
72.50085763,70.99206690,67.86942539
72.56839623,71.05102916,67.92688679
72.66509434,71.19511149,68.02722985
72.76393654,71.37478559,68.08983705
72.84187393,71.51318611,68.12489280
72.96805317,71.77572899,68.30638937
73.01468696,71.90233705,68.40834048
73.08265437,71.99710549,68.50632504
73.15748285,72.16391509,68.53612779
73.25117925,72.32600772,68.65383791
73.33715695,72.48810034,68.74388937
73.46794597,72.68042453,68.83865780
73.61310034,72.90062178,68.96708834
73.67334906,73.05735420,69.08286878
73.74517581,73.20551029,69.18921527
73.67592196,73.18406947,69.18299743
73.00000000,72.32011149,68.57654374
72.44050172,71.35688250,67.99882075
72.26618782,70.92978130,67.79363208
72.22620069,70.75557461,67.75171527
72.04298885,70.39097341,67.55799743
71.78709262,69.90008576,67.20390223
71.70240137,69.66595197,67.05917667
71.96376501,69.92002573,67.29781304
72.06700257,70.10774014,67.45186535
71.93246141,69.97041166,67.33469125
71.85066467,69.90984134,67.25589623
71.92356346,69.98852916,67.33737136
72.05210120,70.20197256,67.50192967
72.18610635,70.38421955,67.58876501
72.26007719,70.57568611,67.71719554
72.32804460,70.70883362,67.77765866
72.42066895,70.87500000,67.87628645
72.47652230,71.02969554,67.95336621
72.55499571,71.22845197,68.10045026
72.64472556,71.44318182,68.20325901
72.77840909,71.64762007,68.31099914
72.86728130,71.81775300,68.37328473
72.95433105,72.02508576,68.50643225
73.09026587,72.22062607,68.60934820
73.21129931,72.44436106,68.73574185
73.35870497,72.69275300,68.93074614
73.44682676,72.87242710,69.02251286
73.42677959,72.91756003,69.00053602
72.76468696,72.13389794,68.44114494
71.95604631,70.86942539,67.71912521
71.67324185,70.23434820,67.35613208
71.58715695,69.95465266,67.25868353
71.38368353,69.57750858,67.03055317
71.06861063,68.93932247,66.67174099
70.84712693,68.42024014,66.43610635
70.92045455,68.34476844,66.42024014
71.21944683,68.75996998,66.64762007
71.25503859,68.89997856,66.75996998
71.18213979,68.82193396,66.66563036
71.18910806,68.80381647,66.68653516
71.34112350,69.02487136,66.86899657
71.44328902,69.24045883,66.98960120
71.55456690,69.46301458,67.09809177
71.70979846,69.70272298,67.24024443
71.79288165,69.87821612,67.39108062
71.91638079,70.08061750,67.48091767
72.00804031,70.26640223,67.59444683
72.09959262,70.47309177,67.71451544
72.19907804,70.69757719,67.79599057
72.31035592,70.91005575,67.93599914
72.42409949,71.16380789,68.05896226
72.58919383,71.41059177,68.20111492
72.68374786,71.61599485,68.30810463
72.75675386,71.79384648,68.42656518
72.89011578,71.99410377,68.51297170
73.04213122,72.27948113,68.68256861
73.19854202,72.54223842,68.83233276
73.30188679,72.74785592,68.95626072
73.21805317,72.73584906,68.88507719
72.38990137,71.70186535,68.16262864
71.51425815,70.39676244,67.41820326
71.28580617,69.79459691,67.09584048
71.22780875,69.56014151,67.02755146
71.01425815,69.11288593,66.76725986
70.69779160,68.50332333,66.41648799
70.54191681,68.07836621,66.20336621
70.73466981,68.22523585,66.28441252
71.05210120,68.69060892,66.59176672
71.04813465,68.76854631,66.66798885
70.99463979,68.71076329,66.60227273
71.05210120,68.78173242,66.61556604
71.19082333,69.00493139,66.81196398
71.33093911,69.24539022,66.98038165
71.47866638,69.51275729,67.11009863
71.58855060,69.73756432,67.21740995
71.69993568,69.94350343,67.26618782
71.81678816,70.13411235,67.39376072
71.90019297,70.33629931,67.53827187
72.04438250,70.56903945,67.71805317
72.13293310,70.82011149,67.82354202
72.29298885,71.06164237,67.97673671
72.42367067,71.33790738,68.12371355
72.58394082,71.58737136,68.29127358
72.70283019,71.80060034,68.40951973
72.82965266,72.03055317,68.51018439
72.93246141,72.23949400,68.64729846
73.08726415,72.48499142,68.75321612
73.24110206,72.77948113,68.94286021
73.33222556,73.00611063,69.10816895
73.34273156,73.19114494,69.17334906
72.71558748,72.46408662,68.63389794
71.74346055,70.92849485,67.67099057
71.29052316,70.09969983,67.23563465
71.28602058,69.88143225,67.12414237
71.17109777,69.62006861,66.99656947
70.89129503,69.11427959,66.73863636
70.73499142,68.69103774,66.49828473
70.85741852,68.78795026,66.63893654
71.19007290,69.21129931,66.87853774
71.18739280,69.22598628,66.91187822
71.06282161,69.09562607,66.78880789
71.10045026,69.11910377,66.83329760
71.26436535,69.31668096,66.94210978
71.39622642,69.54995712,67.08512007
71.57289880,69.83061750,67.26372213
71.71665952,70.08930103,67.43771441
71.84894940,70.28677101,67.50996998
71.91831046,70.50493139,67.57139794
71.99474700,70.66798885,67.70958405
72.13454117,70.89719125,67.85302316
72.26876072,71.10045026,67.97330617
72.40748285,71.31121355,68.11738851
72.53623499,71.56110635,68.27680103
72.72437822,71.83887221,68.43514151
72.83576329,72.06024871,68.54759863
72.97105489,72.27422813,68.63979417
72.88057461,72.25000000,68.61213551
72.06400086,71.26404374,67.91563036
71.18964408,69.96365780,67.16348628
70.96151372,69.28076758,66.81936106
70.97148370,69.16230703,66.76972556
70.79395369,68.80124357,66.53987993
70.54802744,68.32590051,66.35870497
70.48113208,68.03730703,66.16316467
70.79824185,68.38636364,66.45561750
71.02240566,68.78012436,66.65298027
70.97019726,68.69446827,66.60334477
70.88904374,68.64440395,66.53076758
71.00868353,68.76061321,66.63797170
71.20819039,69.04373928,66.81089194
71.39719125,69.37725129,67.00782590
71.53023156,69.62264151,67.10870497
71.66734563,69.87725129,67.26361492
71.77851630,70.04695540,67.40716123
71.89665523,70.29309605,67.53816467
71.99356775,70.51243568,67.69789880
72.09959262,70.77390652,67.79684820
72.23820755,70.99699828,67.94425386
72.38775729,71.27540738,68.10495283
72.56721698,71.53334048,68.26811750
72.64772727,71.71955403,68.32482847
72.77873070,71.96033448,68.46505146
72.97587907,72.25246569,68.61545883
73.14193825,72.53216123,68.82654374
73.23477702,72.73949400,68.90180103
72.75653945,72.27176244,68.51854631
71.60173671,70.71816038,67.55992710
70.98113208,69.50793310,66.91723842
70.87510720,69.15876930,66.76790309
70.77572899,68.84948542,66.60205832
70.48670669,68.29009434,66.26393654
70.23756432,67.68096055,65.90030017
70.16123499,67.47041166,65.82139794
70.57107633,67.82965266,66.15576758
70.78634220,68.23659949,66.39804889
70.74163808,68.22105489,66.31110635
70.72845197,68.21837479,66.32407804
70.83629931,68.35409520,66.45293739
71.02905232,68.65555317,66.59937822
71.19768439,68.98048885,66.81646655
71.34980703,69.26533019,66.95508148
71.46612350,69.48649228,67.06646655
71.57772298,69.72737993,67.16069897
71.71408662,69.95936964,67.32707976
71.82772298,70.20508148,67.48402659
71.97480703,70.44007290,67.61588765
72.13014580,70.71740995,67.75921955
72.25139365,71.02840909,67.96665952
72.39686964,71.28066038,68.03687822
72.56035592,71.56721698,68.27948113
72.72716552,71.82472127,68.47137650
72.89536878,72.09755575,68.58297599
73.07118353,72.40222985,68.74142367
73.15308748,72.62821612,68.88807890
72.69596913,72.06518010,68.49228130
71.48349057,70.52401372,67.44618353
70.89676244,69.31099914,66.77026158
70.81571612,68.96837479,66.66005575
70.66434391,68.70229417,66.47009005
70.42613636,68.12039022,66.16262864
70.14150943,67.55060034,65.81453688
70.14654803,67.37982419,65.78462693
70.51554460,67.77004717,66.15855489
70.76543739,68.19210978,66.34755575
70.72384220,68.18503431,66.33447684
70.71998285,68.18353345,66.30510292
70.83994425,68.37403516,66.44907804
71.07118353,68.63443396,66.71033448
71.23499142,69.00836192,66.81582333
71.35956261,69.28709262,66.93310463
71.51790309,69.53484134,67.09230274
71.60698971,69.80081475,67.20325901
71.75000000,70.00686106,67.34541166
71.92431389,70.27422813,67.52272727
72.04792024,70.54620497,67.64976415
72.16991852,70.79663379,67.80349485
72.34069468,71.08168954,67.97427101
72.48917238,71.39204545,68.12339194
72.66477273,71.66027015,68.32965266
72.78205403,71.89590480,68.43171098
72.94039451,72.16102058,68.63464837
73.12274871,72.48038165,68.81485849
73.23852916,72.78269726,68.90448113
73.34573328,73.04877787,69.06250000
73.13797170,72.92849485,68.89869211
72.07718696,71.54716981,68.01972556
71.21226415,70.11771012,67.12371355
71.05199400,69.61031304,66.83286878
71.07268439,69.51029160,66.87757290
70.85420240,69.13893654,66.65587479
70.56625214,68.56410806,66.29609777
70.49807033,68.32632933,66.23606346
70.85280875,68.69328902,66.55242281
71.06496569,68.98284734,66.71891081
70.92613636,68.88411235,66.57472127
70.87049743,68.83083190,66.54352487
70.96419383,68.93224700,66.64301029
71.16530875,69.21462264,66.81925386
71.31764580,69.44671955,67.00761149
71.46526587,69.72148370,67.12564322
71.63357633,69.99099485,67.29202401
71.74785592,70.19875643,67.44296741
71.75246569,70.38539880,67.46580189
71.88336192,70.56067753,67.62435678
71.99699828,70.79802744,67.69446827
72.14354631,71.00460978,67.85731132
72.33512007,71.29995712,68.04331046
72.49828473,71.58147513,68.14794168
72.65480274,71.83640652,68.36020583
72.77948113,72.02111921,68.41412950
72.61835334,71.95390223,68.34519726
71.64783448,70.77197684,67.47373499
70.82064751,69.40298027,66.65984134
70.56003431,68.83490566,66.38786449
70.56153516,68.69982847,66.35184391
70.42270583,68.35023585,66.14697684
70.20100772,67.87039022,65.84487564
70.19328902,67.72780875,65.81185678
70.56024871,68.16252144,66.17817324
70.70969125,68.37264151,66.32354202
70.62896655,68.25696827,66.21687393
70.60806175,68.24228130,66.19746998
70.73391938,68.35891938,66.34112350
70.96087050,68.70443825,66.52669383
71.09980703,68.99303173,66.69779160
71.24571184,69.30424528,66.84927101
71.35977702,69.48563465,66.96119211
71.47223413,69.69671955,67.08436964
71.58812178,69.88872213,67.20947684
71.68610635,70.13979417,67.29545455
71.80167238,70.33897942,67.44746998
71.93535592,70.61760292,67.62317753
72.07729417,70.87146226,67.74195969
72.15694683,71.15008576,67.83426244
72.35162950,71.36535163,68.01693825
72.46322899,71.57815180,68.16970412
72.64172384,71.82547170,68.32504288
72.80767581,72.08619211,68.48649228
72.90769726,72.34830617,68.59852058
72.66252144,72.20111492,68.42967410
71.50150086,70.72405660,67.46076329
70.56024871,69.21397942,66.52144082
70.33061750,68.56453688,66.17881647
70.30049314,68.31721698,66.08908662
70.06539451,67.81432247,65.79674099
69.71580189,67.13389794,65.42570755
69.53151801,66.64322470,65.15930532
69.71108491,66.78162521,65.26554460
70.08383362,67.19639794,65.69468268
70.06743139,67.23531304,65.61931818
70.00825472,67.11781732,65.56121355
70.04684820,67.19607633,65.53784305
70.24764151,67.43310463,65.78087479
70.43589194,67.72126930,65.92474271
70.63025300,68.01147084,66.10237993
70.68299743,68.25460978,66.22566467
70.72405660,68.44682676,66.34712693
70.84894940,68.64440395,66.42527873
70.99828473,68.96333619,66.58983705
71.15887650,69.18632075,66.76522298
71.26661664,69.42527873,66.87231990
71.44221698,69.69307461,67.02412093
71.55810463,69.95025729,67.17388508
71.70358062,70.22180532,67.36310034
71.77787307,70.44875643,67.39515437
71.92367067,70.70068611,67.59112350
72.13561321,71.03677101,67.79320326
72.29556175,71.32343482,67.90490995
72.37864494,71.47770154,68.05017153
71.74592624,70.85634648,67.47362779
70.66434391,69.34015866,66.55242281
70.15576758,68.32107633,65.98338336
70.15405232,68.04834906,65.85645369
70.06989708,67.74699828,65.70218696
69.82761578,67.14665523,65.36535163
69.55242281,66.58608491,65.02026158
69.53677101,66.44371784,65.01725986
69.86781732,66.82665094,65.33715695
70.10881218,67.11738851,65.47502144
70.01425815,67.06207118,65.39719125
70.00536021,67.02272727,65.44318182
70.11781732,67.18321184,65.53698542
70.32675815,67.47405660,65.71183533
70.51275729,67.76082762,65.87575043
70.64890652,68.02647942,66.02433533
70.72813036,68.26136364,66.14922813
70.85666810,68.51211407,66.26768868
70.96183533,68.73391938,66.39837050
71.10666810,68.97137650,66.59873499
71.24839194,69.24710549,66.71280017
71.34766295,69.49774871,66.82707976
71.48734991,69.75321612,66.99678388
71.63250429,70.02186964,67.17002573
71.76543739,70.26972556,67.32397084
71.85763293,70.55317324,67.44939966
71.99131647,70.79727702,67.55628216
72.09487564,71.02133362,67.71623070
72.25611063,71.28355489,67.85516724
72.42152659,71.52808748,68.01072041
72.56357204,71.79663379,68.19843482
72.66680961,72.01372213,68.29073756
72.57911664,72.00836192,68.27915952
71.52165523,70.80017153,67.40716123
70.74313894,69.57847341,66.63400515
70.61074185,69.13218268,66.36181389
70.66144940,69.07461407,66.38186106
70.49228130,68.73756432,66.20025729
70.18235420,68.20358062,65.86310034
70.10066467,67.86674528,65.75911235
70.26715266,68.02315609,65.84626930
70.54009434,68.37435678,66.08554889
70.45668954,68.32911664,66.03773585
70.37017581,68.19843482,65.93857204
70.38175386,68.22866638,65.98531304
70.48499142,68.38550600,66.09176672
70.59541166,68.57825901,66.24914237
70.71430103,68.78891509,66.32279160
70.80553173,68.98649228,66.47148370
70.90619640,69.15276587,66.55263722
70.97448542,69.31389365,66.66938250
71.01886792,69.43010292,66.71162093
71.13829331,69.64837050,66.83447684
71.22319897,69.82590051,66.96440823
71.34894940,70.06957547,67.13668525
71.46826758,70.26715266,67.21590909
71.60237993,70.49539022,67.36352916
71.65083619,70.70186535,67.40083619
71.81625214,70.93203259,67.55124357
71.91756003,71.07407804,67.68814322
71.66509434,70.85956261,67.51350772
70.67978130,69.69757719,66.63175386
70.02883791,68.52798027,65.99431818
69.97813036,68.17795883,65.83018868
70.00578902,68.12564322,65.83662093
69.80896226,67.76050600,65.59927101
69.59058748,67.27690823,65.33672813
69.62703688,67.16498714,65.34037307
69.94307461,67.51533019,65.56464408
69.94093053,67.58629931,65.65533877
69.77647942,67.38304031,65.50053602
69.75782590,67.33844340,65.46944683
69.82890223,67.43589194,65.55896226
70.01179245,67.70197256,65.73542024
70.09198113,67.90759005,65.85720412
70.18128216,68.10002144,65.92292024
70.23906518,68.29588336,66.06153516
70.32064751,68.42356346,66.16112779
70.40501715,68.55381647,66.20969125
70.49185249,68.73391938,66.30767581
70.55060034,68.88314751,66.42152659
70.67935249,69.08051029,66.51318611
70.82043310,69.33608491,66.63582762
70.92174099,69.54266724,66.78902230
71.03837907,69.81346484,66.95004288
71.04331046,69.86042024,66.98241852
70.68964408,69.53527015,66.65340909
69.64826329,68.08694254,65.75503859
69.00525300,66.93621355,65.06936106
68.97019726,66.57568611,64.93053173
68.89054460,66.27369211,64.79063036
68.68674957,65.78816467,64.50707547
68.31057033,65.18514151,64.16219983
68.21665952,65.00653945,64.07300600
68.50332333,65.34594768,64.37896655
68.66895369,65.57161235,64.43246141
68.57707976,65.39890652,64.37253431
68.51039880,65.34959262,64.33265437
68.60548885,65.51114923,64.42088336
68.79963551,65.73424099,64.64976415
68.97341338,65.99656947,64.74442539
69.08211835,66.20969125,64.92795883
69.14987136,66.41102058,65.04652659
69.26318611,66.57729417,65.14526158
69.38089623,66.82343482,65.22737993
69.48552744,67.06721698,65.36438679
69.55328045,67.29513293,65.47009005
69.66219983,67.50117925,65.57707976
69.79652659,67.72984563,65.71033448
69.92227702,67.97737993,65.89290309
70.05810463,68.24313894,66.03216123
70.20636792,68.52819468,66.21708834
70.35720412,68.77873070,66.38357633
70.48048885,69.04202401,66.50364494
70.31421527,68.98274014,66.44671955
69.32536449,67.72952401,65.54470412
68.50000000,66.35827616,64.70090051
68.38003859,65.82729417,64.44028731
68.38057461,65.60334477,64.37328473
68.08865780,65.15340909,64.05649657
67.73563465,64.58897942,63.75707547
67.54952830,64.18610635,63.49442539
67.76704545,64.38046741,63.69286021
68.09101630,64.85237993,64.03484134
68.11181389,64.91305746,64.02219125
68.04802744,64.84626930,63.99914237
68.11020583,64.89644082,64.05424528
68.30917667,65.17903087,64.25171527
68.49678388,65.46333619,64.40351630
68.71044168,65.73209691,64.56850343
68.83479846,65.99753431,64.70808319
68.93417667,66.20411664,64.83812178
69.07697256,66.43782161,64.96355060
69.17763722,66.70336621,65.12789451
69.29888508,66.95132933,65.31582333
69.44103774,67.23370497,65.46312178
69.62853774,67.53870069,65.67913808
69.77605060,67.83608491,65.81207118
69.92302744,68.12135506,65.96676672
70.08544168,68.39654803,66.11610206
70.20422384,68.67870926,66.26189966
70.37928816,68.98198971,66.47234134
70.49753431,69.23424099,66.60538165
70.68653516,69.54116638,66.73842196
70.81228559,69.75032161,66.85838336
70.95754717,70.03516295,67.04738422
71.16037736,70.31925386,67.25643225
71.30649657,70.59487564,67.36310034
71.43653516,70.82504288,67.56132075
70.84948542,70.31582333,67.05381647
69.70454545,68.85291595,66.08919383
69.18696398,67.87692967,65.51415094
69.16520154,67.64762007,65.48895798
69.12617925,67.48724271,65.35023585
68.84959262,66.97244854,65.06164237
68.58093911,66.42849485,64.76018439
68.52894511,66.22277015,64.65587479
68.82064751,66.54320326,64.98831475
69.02508576,66.84369640,65.11620926
68.89118782,66.71794597,65.03934391
68.87210549,66.69243139,65.03591338
68.95872642,66.77776587,65.10966981
69.14247427,67.07000429,65.22352058
69.26018439,67.24024443,65.40426672
69.38636364,67.48027444,65.50814751
69.53226844,67.74774871,65.69200257
69.63271870,67.93610635,65.76801029
69.72491424,68.11063465,65.91573756
69.81035592,68.31550172,65.96022727
69.97469983,68.55638937,66.08190395
70.06282161,68.74099485,66.19382504
70.21901801,69.01340051,66.35538165
70.37285592,69.25042882,66.50643225
70.44457547,69.44050172,66.64633362
70.59969983,69.67988851,66.75471698
70.77058319,69.94939966,66.89515437
70.91370069,70.17292024,67.07000429
70.99614065,70.36642367,67.12885935
70.72255575,70.12542882,66.93953688
69.75825472,68.90662521,66.14504717
69.11149228,67.86942539,65.48627787
69.03473413,67.49871355,65.34541166
69.05445969,67.37006861,65.35120069
68.82675815,66.96054889,65.04652659
68.61256432,66.55038593,64.82954545
68.62328473,66.52229846,64.83361921
69.01029160,66.95197256,65.23885077
69.03730703,67.01993997,65.24313894
68.92056175,66.85130789,65.11524443
68.90973413,66.83726415,65.12371355
69.02615780,67.00407376,65.26072041
69.16916810,67.25814751,65.38786449
69.31807461,67.44886364,65.56850343
69.46344340,67.69779160,65.66091338
69.61095626,67.91541595,65.78376930
69.68599914,68.09616209,65.86224271
69.78323328,68.27851630,65.96805317
69.88346913,68.47673671,66.10045026
69.99699828,68.69639794,66.24785592
70.13164666,68.93932247,66.35034305
70.26908233,69.14408233,66.53259005
70.39225986,69.35602487,66.59080189
70.56539451,69.60849057,66.75578902
70.69361063,69.85291595,66.88722127
70.83061750,70.05917667,67.08426244
70.81743139,70.10495283,67.05092196
70.03216123,69.27765866,66.38872213
69.02186964,67.82933105,65.51265009
68.66852487,67.03194683,65.08726415
68.61953259,66.75761149,64.98917238
68.41627358,66.34551887,64.78205403
68.07257719,65.77583619,64.41520154
67.89526158,65.27690823,64.16327187
68.06035592,65.34616209,64.23617067
68.43750000,65.78934391,64.57257719
68.43589194,65.84991424,64.62092624
68.31818182,65.77572899,64.54159520
68.38604202,65.81357204,64.57043310
68.54459691,66.00686106,64.72362779
68.69661235,66.31732419,64.84626930
68.84798456,66.56217839,64.97855918
68.96430103,66.79320326,65.14740566
69.10055746,66.97255575,65.29931389
69.21365780,67.19993568,65.43685678
69.32954545,67.44468268,65.59433962
69.43985849,67.68042453,65.67442110
69.59873499,67.87103345,65.87317753
69.73488422,68.12532161,65.97244854
69.84305317,68.40394511,66.16831046
70.00943396,68.65222985,66.27379931
70.14086621,68.90265866,66.39558319
70.27980274,69.13700686,66.58404803
70.45465266,69.42334906,66.74153087
70.60581046,69.69586192,66.88175386
70.76275729,69.92913808,67.04105918
70.72073328,69.99410377,66.98359777
69.82568611,68.96505146,66.29373928
68.76447256,67.38711407,65.30499571
68.41144940,66.59412521,64.81367925
68.30724700,66.30831904,64.73734991
68.09187393,65.89290309,64.46472985
67.80692539,65.20765437,64.10623928
67.59348199,64.71998285,63.78816467
67.67356346,64.73316895,63.85752573
68.13786449,65.24035163,64.29095197
68.23617067,65.45379503,64.37446398
68.10034305,65.37478559,64.24742710
68.12843053,65.39193825,64.36342196
68.32332762,65.66359348,64.50278731
68.50675386,65.96215695,64.67549314
68.68696398,66.26908233,64.87071184
68.85098628,66.54180961,65.04266724
68.93792882,66.78762864,65.19350343
69.08930103,66.98552744,65.32836621
69.20175815,67.23284734,65.46204974
69.35420240,67.46590909,65.61299314
69.52787307,67.75964837,65.79073756
69.67763722,68.01725986,65.92292024
69.80542453,68.33672813,66.07579331
69.96151372,68.64847770,66.21794597
70.14172384,68.91873928,66.43653516
70.30242281,69.19907804,66.56764580
70.46054889,69.44639794,66.75471698
70.60999142,69.72212693,66.90051458
70.76801029,69.99163808,67.06925386
70.92002573,70.28473413,67.22555746
71.06614494,70.56957547,67.35816895
71.18267581,70.88679245,67.49356775
71.32997427,71.11042024,67.64536878
71.43342624,71.40405232,67.79984991
71.62500000,71.71612350,67.98992281
71.78473413,72.01565180,68.14922813
71.87006861,72.28773585,68.32504288
71.54373928,72.02637221,67.99313894
70.13454117,70.41906089,66.91605918
69.42527873,69.01490137,66.13111063
69.39365352,68.58726415,65.93096055
69.35559605,68.46558748,65.93685678
69.07204117,68.02808748,65.58040309
68.75010720,67.43578473,65.23102487
68.63625643,67.05328045,65.08436964
68.87714408,67.26136364,65.30424528
69.18910806,67.70733276,65.53709262
69.19639794,67.74978559,65.57096913
69.12317753,67.67720840,65.53805746
69.19382504,67.76801029,65.60849057
69.33265437,67.97223413,65.78762864
69.52004717,68.24646226,65.94350343
69.74581904,68.55649657,66.08265437
69.88593482,68.79116638,66.23649228
70.01565180,69.04845626,66.35720412
70.15576758,69.28119640,66.52026158
70.21880360,69.46623070,66.63368353
70.35645369,69.69950686,66.73960120
70.49914237,69.96419383,66.89086621
70.65962693,70.25203688,67.02454974
70.81292882,70.57472127,67.21987564
70.95004288,70.80574614,67.40930532
71.08168954,71.12650086,67.50728988
71.18707118,71.37403516,67.71601630
71.29716981,71.63936535,67.84541166
71.46966123,71.93642796,67.99603345
71.56367925,72.20240137,68.13400515
71.71408662,72.45486707,68.28870069
71.60881218,72.46322899,68.23895798
70.63915094,71.39922813,67.50707547
69.86084906,70.10184391,66.71097770
69.69907804,69.58565609,66.41563036
69.77058319,69.52358491,66.41080617
69.68428388,69.26597341,66.30864065
69.45186535,68.82536449,66.03334048
69.35902659,68.61695969,65.94135935
69.68299743,68.97137650,66.21623070
69.92270583,69.26189966,66.43171098
69.83919383,69.20368782,66.37478559
69.79609777,69.13207547,66.30210120
69.87553602,69.19693396,66.39075901
70.04759863,69.43910806,66.52765866
70.18878645,69.72201973,66.71065609
70.33715695,69.98059605,66.83351201
70.43096055,70.22491424,66.96805317
70.51382933,70.40126501,67.09787736
70.63593482,70.64472556,67.24528302
70.72523585,70.79427530,67.34637650
70.82665094,71.04556175,67.46515866
70.97341338,71.29588336,67.56024871
71.05778302,71.48852916,67.66327187
71.17495712,71.71826758,67.83640652
71.33340480,71.98713551,68.00343053
71.47652230,72.26854631,68.14418954
71.59852058,72.50225129,68.29363208
71.58930103,72.57064751,68.33158233
70.88968696,71.84787736,67.74731990
69.95068611,70.41873928,66.88550600
69.56174957,69.55724700,66.41766724
69.59283877,69.34712693,66.37135506
69.44286021,69.05156518,66.16477273
69.24506861,68.53902230,65.89794168
69.03762864,68.09937822,65.67227702
69.08211835,68.11149228,65.72705832
69.50203688,68.57665094,66.11288593
69.62725129,68.72823756,66.15105060
69.53012436,68.63775729,66.06442967
69.54138079,68.64536878,66.11878216
69.67056175,68.81743139,66.24539022
69.89601201,69.10227273,66.37478559
70.08008148,69.38089623,66.61267153
70.21526587,69.64022298,66.72512864
70.32525729,69.82997427,66.84905660
70.41241424,70.05521012,66.98274014
70.50911235,70.30027873,67.06850343
70.64054460,70.50225129,67.17206261
70.78076758,70.74346055,67.34573328
70.94478988,71.00053602,67.47180532
71.06700257,71.29277444,67.63968696
71.23949400,71.52251286,67.84069468
71.41155660,71.81786021,68.02004717
71.51104202,72.06743139,68.12403516
71.62789451,72.31314322,68.28870069
71.72545026,72.51854631,68.38518439
71.85838336,72.71794597,68.51447256
72.01404374,72.99024443,68.68599914
72.17484991,73.29127358,68.84594768
72.35173671,73.52733705,69.04663379
72.26082762,73.52690823,68.96172813
71.18589194,72.20583190,68.10055746
70.23820755,70.56367925,67.11277873
70.01747427,69.79384648,66.74003002
70.00718268,69.60023585,66.66069897
69.82214837,69.13582762,66.42249142
69.46312178,68.47319897,66.03473413
69.19028731,67.99195969,65.75203688
69.26854631,67.95186535,65.81207118
69.68181818,68.44339623,66.17324185
69.84187393,68.65876930,66.29105918
69.74689108,68.58737136,66.23767153
69.80574614,68.56668096,66.26350772
69.92956690,68.72137650,66.37146226
70.16852487,69.02251286,66.54502573
70.35516724,69.33372642,66.72909520
70.51554460,69.53419811,66.86138508
70.64719125,69.74110206,66.97502144
70.80735420,69.96387221,67.12124786
70.94028731,70.18171098,67.25117925
71.08640652,70.44532590,67.40544597
71.23016724,70.68750000,67.56464408
71.35752573,70.98274014,67.69671955
71.48702830,71.23767153,67.89954974
71.62746569,71.53484134,68.00460978
71.80338765,71.78537736,68.16702401
71.94275300,72.04738422,68.28237564
72.08833619,72.32418525,68.48349057
72.20936964,72.59080189,68.63196827
72.35516724,72.83587050,68.75053602
72.43589194,73.09433962,68.92431389
72.59884220,73.40115780,69.10849057
72.78859348,73.68396226,69.27186964
72.94200257,73.96151372,69.38668525
72.78719983,73.93514151,69.33865780
71.80821184,72.67399228,68.44929245
70.84015866,71.01447256,67.47116209
70.60313036,70.13486278,67.11813894
70.58136792,69.90791166,67.04084477
70.40340909,69.54277444,66.82064751
70.04245283,68.94789880,66.39815609
69.83790738,68.46719554,66.27337050
69.92377787,68.48917238,66.27219125
70.32397084,68.97620069,66.63786449
70.43803602,69.16702401,66.72084048
70.39301029,69.09433962,66.68074614
70.36513722,69.09712693,66.67817324
70.50321612,69.25493139,66.77744425
70.76650943,69.57311321,67.03259005
70.95433105,69.88078902,67.20797599
71.15373070,70.14794168,67.37156947
71.31528731,70.43406947,67.46172813
71.45347341,70.64472556,67.62371355
71.55435249,70.86117067,67.78269726
71.68106775,71.06121355,67.93835763
71.82236278,71.33051029,68.03634220
71.98231132,71.62682247,68.21515866
72.12392796,71.92860206,68.32354202
72.26050600,72.18053173,68.48477702
72.40351630,72.43825043,68.67452830
72.52583619,72.69393225,68.83972985
72.66295026,72.97813036,69.01993997
72.76093482,73.20561750,69.06839623
72.86588765,73.40705403,69.17120497
72.97341338,73.66166381,69.28687822
73.09562607,73.96355060,69.43460549
73.25460978,74.22888079,69.60623928
73.32879503,74.42870926,69.71387221
72.79116638,73.91059177,69.26093482
71.60270154,72.16766724,68.23456261
70.94103774,70.79952830,67.46226415
70.90769726,70.40062178,67.31099914
70.95454545,70.30360206,67.29566895
70.72566467,69.88925815,67.04706261
70.44982847,69.39686964,66.75000000
70.45861921,69.27337050,66.78430532
70.83758576,69.71215695,67.08051029
70.95969125,69.89429674,67.18610635
70.86042024,69.74592624,67.03580617
70.84787736,69.70379503,67.08865780
70.98777873,69.86942539,67.17024014
71.21237136,70.20079331,67.36674528
71.38840051,70.46515866,67.53098199
71.52798027,70.69950686,67.69178816
71.64890652,70.89483276,67.81700257
71.76125643,71.10645369,67.95422384
71.87628645,71.32439966,68.07054031
71.98284734,71.56367925,68.11578045
72.07536449,71.77626501,68.33501286
72.22748714,72.02444254,68.42388508
72.37403516,72.26897513,68.58115352
72.48252573,72.51640223,68.70572470
72.63207547,72.82718696,68.83576329
72.72169811,73.03666381,68.97491424
72.81035592,73.24281732,69.11824614
72.91938250,73.50879074,69.22813036
73.03687822,73.82461407,69.35463122
73.15759005,74.00728988,69.51050600
72.90630360,73.82418525,69.35377358
71.78816467,72.26393654,68.32632933
70.84777015,70.57461407,67.40158662
70.67549314,69.89976415,67.03183962
70.66702401,69.74764151,67.00493139
70.41520154,69.31207118,66.71087050
70.06978988,68.67334906,66.37382075
69.89590480,68.29684820,66.17442110
70.09734134,68.47105489,66.36513722
70.43664237,68.96001286,66.65619640
70.47630789,69.03269726,66.66048456
70.41520154,68.90619640,66.62231990
70.44564751,68.98316895,66.65147942
70.65941252,69.25460978,66.81936106
70.85184391,69.55060034,67.03644940
71.08072470,69.86803173,67.21087050
71.21880360,70.09358919,67.37274871
71.32825901,70.29331046,67.44639794
71.48188250,70.52948113,67.59616209
71.61953259,70.76575901,67.69650515
71.70851201,70.99882075,67.80992710
71.89451115,71.25214408,68.03730703
72.00493139,71.52358491,68.16487993
72.14912093,71.77454974,68.30864065
72.28108919,72.02637221,68.45218696
72.40598199,72.30521012,68.58093911
72.58147513,72.57611492,68.74678388
72.67817324,72.85870497,68.90801887
72.82600772,73.13304031,69.01447256
72.82890223,73.35120069,69.08897942
72.97105489,73.55038593,69.27251286
73.12039022,73.83372642,69.38668525
73.29834906,74.19693396,69.59530446
73.45604631,74.47169811,69.66852487
73.27937393,74.41659520,69.67645798
72.04309605,72.83855060,68.64858491
70.92313465,70.90812607,67.50889794
70.59766295,69.95958405,67.06828902
70.60130789,69.75439537,66.97244854
70.40909091,69.33940823,66.70218696
70.01179245,68.64043739,66.28837907
69.75889794,68.06635935,66.04234563
69.86878216,68.06903945,66.10934820
70.27669383,68.55328045,66.45465266
70.41520154,68.77626501,66.55628216
70.30917667,68.67881647,66.49699828
70.32975986,68.65608919,66.47791595
70.47823756,68.78612779,66.61781732
70.71301458,69.12682247,66.79191681
70.93117496,69.45325901,66.96076329
71.09358919,69.70229417,67.21923242
71.21794597,69.94736278,67.30778302
71.37810892,70.21730274,67.43642796
71.50150086,70.44296741,67.57504288
71.65630360,70.66573756,67.70068611
71.83222556,70.94286021,67.87146226
71.97941681,71.18546312,67.97534305
72.18728559,71.47566467,68.24045883
72.30971269,71.74689108,68.32793739
72.47437822,72.04813465,68.52454974
72.51650943,72.32740137,68.61427959
72.72223413,72.63025300,68.76533019
72.90962693,72.91948971,69.01104202
73.03162521,73.21322899,69.17034734
73.05746141,73.41487993,69.21655232
72.38614923,72.65909091,68.66916810
71.34433962,70.98627787,67.63550600
70.82900943,69.95272298,67.00332333
70.82515009,69.71966123,66.97845197
70.74099485,69.50450257,66.85141509
70.47855918,68.98370497,66.53066038
70.18642796,68.46451544,66.27390652
70.21740995,68.34819897,66.21633791
70.58008148,68.73960120,66.52926672
70.75836192,69.06453688,66.68460549
70.69607633,68.97823756,66.64225986
70.70722556,68.94028731,66.69371784
70.80660377,69.09219554,66.71012007
71.00954117,69.32750858,66.90405232
71.18492710,69.56871784,67.03591338
71.35966981,69.89547599,67.25396655
71.46408662,70.10752573,67.36953259
71.60548885,70.34090909,67.52251286
71.73552744,70.53591338,67.64954974
71.82654374,70.75986278,67.73070326
71.99785592,71.01393654,67.88679245
72.12231990,71.21901801,67.98123928
72.27079760,71.47105489,68.13915094
72.41359348,71.72148370,68.29223842
72.55381647,71.96483705,68.46290738
72.67967410,72.24871355,68.58340480
72.74496141,72.51897513,68.69221698
72.68964408,72.49924957,68.66927530
71.77219125,71.36417238,67.86674528
70.95068611,69.98113208,67.06453688
70.75042882,69.39944254,66.76479417
70.73359777,69.26490137,66.72780875
70.61588765,69.01404374,66.61417238
70.37928816,68.59391081,66.31796741
70.30113636,68.34444683,66.26104202
70.60688250,68.64740566,66.53462693
70.76372213,68.93481990,66.64043739
70.61567324,68.72995283,66.49045883
70.53912950,68.63411235,66.42635077
70.60516724,68.69028731,66.50117925
70.75707547,68.92002573,66.67945969
70.92442110,69.17270583,66.77069039
71.04309605,69.40694683,66.93867925
71.18932247,69.64365352,67.03602058
71.28344768,69.81024871,67.14708405
71.36363636,69.97019726,67.23370497
71.44972127,70.15147942,67.34509005
71.52015437,70.32418525,67.35849057
71.62896655,70.51447256,67.54556175
71.75611063,70.75268010,67.68964408
71.92356346,71.01211407,67.81228559
72.04202401,71.21526587,67.98863636
72.20958405,71.45658233,68.14804889
72.17720840,71.49217410,68.13346913
71.34916381,70.54920669,67.41434391
70.30778302,68.88368353,66.43342624
69.92656518,68.10430961,65.95572470
69.89054460,67.85345197,65.87489280
69.80092196,67.58801458,65.69371784
69.53301887,67.05703259,65.39601201
69.42838765,66.68074614,65.23177530
69.64397513,66.94972127,65.44243139
69.83276158,67.27079760,65.62028302
69.76093482,67.19854202,65.58683533
69.70518868,67.11127787,65.54909949
69.72201973,67.13282590,65.55392367
69.85602487,67.37918096,65.68471269
70.01265009,67.66852487,65.85613208
70.13818611,67.89140223,65.99710549
70.24238851,68.09273156,66.12682247
70.35602487,68.31228559,66.29920669
70.40448113,68.45315180,66.35924099
70.47984563,68.66616638,66.42838765
70.58919383,68.83254717,66.52894511
70.71140652,69.07204117,66.63572041
70.85484563,69.33812178,66.80939108
70.99860635,69.61717410,67.00611063
71.09444683,69.82021870,67.11331475
70.93149657,69.75075043,66.97180532
70.05081475,68.54845626,66.23885077
69.09326758,66.96419383,65.25600343
68.84005146,66.28516295,64.84112350
68.83233276,65.99228130,64.71397942
68.55338765,65.52358491,64.44146655
68.18460549,64.96826758,64.08533448
68.00396655,64.61352916,63.94800600
68.23981561,64.82536449,64.18321184
68.62735849,65.35763293,64.55531732
68.58447684,65.45475986,64.49185249
68.55006432,65.35430961,64.45851201
68.64997856,65.47373499,64.49281732
68.85581046,65.75353774,64.68299743
69.07879503,66.05328045,64.93878645
69.22673671,66.36996141,65.12446398
69.38379074,66.61277873,65.30295883
69.48156089,66.88936535,65.44704117
69.62939537,67.18042453,65.55113636
69.73606346,67.41873928,65.70861921
69.87896655,67.70894082,65.87339194
70.02240566,67.94200257,66.03269726
70.18085334,68.27047599,66.15748285
70.30135077,68.53484134,66.32772298
70.44939966,68.84798456,66.47341338
70.64837050,69.15566038,66.66316467
70.78269726,69.45465266,66.84723413
70.91595197,69.72384220,67.01779588
71.05360206,69.97405660,67.11663808
71.25032161,70.22759434,67.30135077
71.40062178,70.49924957,67.48059605
71.57536449,70.80413808,67.66112779
71.70604631,71.08469125,67.78730703
71.40523156,70.82182676,67.55081475
70.10366638,69.22030446,66.46837479
69.24078045,67.68953688,65.56282161
69.12039022,67.22587907,65.30113636
69.05467410,66.98499142,65.22598628
68.81603774,66.46998285,64.90544597
68.53687822,65.81839623,64.53323328
68.37585763,65.45240137,64.40801887
68.62735849,65.61578045,64.48906518
68.97019726,66.10077187,64.86063465
69.00664666,66.18825043,64.88293310
68.94275300,66.15373070,64.80681818
68.99367496,66.23038165,64.85452401
69.16809605,66.47662950,65.08361921
69.35870497,66.79524014,65.23091767
69.50996998,67.06807461,65.40641081
69.58619211,67.33190395,65.57825901
69.69982847,67.54781304,65.68867925
69.80756861,67.74324614,65.84230274
69.98970840,68.02079760,65.93117496
70.14708405,68.27444254,66.16981132
70.23531304,68.47223413,66.28376930
70.40265866,68.77401372,66.40072899
70.56432247,69.06132075,66.60870497
70.68192539,69.32943825,66.73552744
70.85430961,69.63968696,66.87317753
70.98981561,69.90362350,67.04427530
71.13807890,70.13700686,67.18524871
71.27755146,70.37768010,67.33051029
71.40887650,70.59412521,67.47126930
71.58608491,70.89204545,67.69564751
71.74742710,71.18524871,67.81453688
71.83747856,71.46119211,67.96548027
71.47201973,71.17227702,67.59316038
70.31346484,69.58897942,66.69468268
69.51704545,68.23659949,65.83072470
69.37875214,67.72523585,65.55199400
69.32300600,67.51554460,65.47309177
69.08662093,67.00943396,65.17860206
68.72244854,66.34487564,64.82450686
68.61888937,65.98810034,64.65683962
68.84701973,66.16927530,64.85559605
69.19125214,66.62607204,65.14301029
69.11106346,66.59369640,65.12049743
68.98102487,66.46408662,64.96537307
69.04974271,66.51608062,65.03880789
69.22437822,66.72030446,65.19050172
69.35023585,66.96430103,65.36824614
69.49238851,67.21237136,65.54298885
69.62746569,67.47009005,65.66434391
69.73316895,67.71451544,65.85366638
69.80017153,67.88207547,65.90823328
69.91852487,68.11685249,66.05360206
70.04223842,68.33447684,66.13893654
70.17409949,68.54781304,66.34884220
70.28987993,68.81861063,66.42195540
70.41970412,69.08715695,66.57064751
70.57214837,69.31614494,66.70336621
70.72684391,69.58404803,66.87585763
70.86738851,69.83844340,67.00589623
71.01704545,70.09680532,67.18599914
71.05789022,70.20175815,67.19725557
70.35613208,69.44789880,66.60913379
69.19436106,67.84637650,65.62553602
68.77369211,66.88325472,65.08093911
68.72845197,66.64590480,64.99367496
68.68063894,66.43278302,64.90298027
68.42227702,65.98724271,64.60859777
68.19200257,65.55992710,64.37489280
68.43181818,65.74099485,64.58276158
68.68353345,66.17345626,64.82804460
68.63765009,66.16852487,64.78259005
68.54813465,66.00032161,64.72523585
68.61556604,66.09262436,64.75707547
68.73520583,66.34562607,64.90973413
68.94146655,66.57868782,65.15480274
69.08790738,66.86256432,65.31260720
69.27219125,67.16241424,65.50268010
69.38861492,67.36310034,65.64504717
69.45551029,67.62982419,65.67656518
69.55531732,67.77444254,65.76908233
69.67753002,68.00321612,65.92817324
69.77915952,68.21719554,66.06217839
69.94575472,68.48970840,66.22705832
70.10313036,68.77722985,66.42431389
70.31550172,69.08737136,66.59616209
70.43696398,69.33276158,66.72834477
70.44039451,69.41445111,66.75921955
69.53409091,68.42903087,65.98799314
68.45743997,66.73831475,65.03055317
68.01758148,65.88872213,64.43825043
68.01618782,65.65126501,64.38411235
67.95154374,65.36427959,64.25879074
67.71440823,64.90351630,63.94918525
67.53173242,64.54459691,63.73713551
67.75621784,64.75536021,63.95840480
68.12789451,65.23359777,64.36695969
68.10345197,65.28376930,64.29084477
68.02079760,65.20861921,64.21719554
68.04116638,65.24678388,64.29138079
68.23488422,65.51425815,64.44886364
68.42206261,65.85581046,64.62746569
68.57547170,66.12628645,64.86985420
68.71430103,66.37875214,64.98874357
68.85924099,66.61438679,65.21687393
68.97041166,66.85741852,65.26908233
69.10055746,67.11620926,65.41295026
69.25503859,67.33072470,65.53527015
69.36202830,67.58093911,65.73188250
69.56989708,67.85591767,65.91745283
69.66970412,68.12553602,66.06121355
69.79802744,68.37371355,66.15351630
69.99313894,68.69854202,66.43181818
70.20207976,69.04534734,66.59294597
70.35709691,69.29770583,66.76468696
70.18256861,69.18707118,66.61524443
68.86856775,67.62135506,65.52315609
67.82611492,65.86813894,64.48799314
67.64483276,65.26147084,64.13175386
67.64129503,64.99356775,64.01801029
67.40962693,64.51961835,63.72480703
67.03612779,63.90469554,63.30756861
66.81485849,63.48617067,63.10152230
67.03902230,63.68803602,63.28987993
67.48445540,64.26511578,63.71129931
67.55456690,64.39440395,63.80156518
67.49206690,64.33383362,63.77186964
67.58394082,64.42442110,63.81164237
67.78773585,64.67024014,64.03473413
68.05124357,65.03880789,64.22298456
68.26039880,65.38025300,64.44221698
68.40480274,65.67495712,64.61728130
68.51683105,65.95508148,64.74539022
68.69382504,66.19704117,64.92024014
68.83522727,66.47909520,65.13432676
69.01779588,66.75664666,65.31968268
69.14665523,67.04781304,65.48370497
69.29577616,67.34080189,65.62982419
69.48509863,67.64290309,65.82407804
69.68964408,67.96816038,66.06507290
69.82643654,68.26254288,66.21022727
70.03108919,68.56003431,66.35355918
70.20358062,68.89054460,66.53183962
70.37757290,69.12028302,66.69103774
70.53366209,69.41466552,66.85291595
70.65169383,69.66262864,67.00182247
70.82268439,69.96826758,67.12885935
71.06207118,70.33458405,67.35988422
71.24549743,70.66552316,67.60227273
71.19157376,70.76211407,67.55842624
69.94693396,69.30199400,66.54899228
68.58715695,67.18428388,65.30928388
68.16391509,66.12768010,64.64633362
68.16370069,65.91563036,64.60623928
68.01929674,65.53323328,64.38228988
67.68364065,64.86781732,63.91756003
67.40319468,64.26983276,63.59530446
67.42720840,64.24067324,63.64504717
67.91713122,64.79234563,64.12039022
68.14858491,65.08726415,64.30488851
68.06292882,65.01361492,64.21558748
68.07750858,65.05671098,64.21816038
68.25171527,65.25107204,64.40630360
68.48284734,65.59691252,64.56582333
68.73252573,65.91477273,64.84380360
68.93728559,66.23488422,65.04063036
69.11310034,66.55135077,65.22116209
69.21151372,66.80821184,65.37660806
69.35388079,67.08887221,65.52883791
69.47523585,67.32750858,65.68256861
69.66906089,67.59466123,65.84251715
69.84294597,67.89912093,66.01983276
69.92560034,68.20004288,66.15973413
70.14762007,68.52454974,66.33329760
70.28280446,68.79695540,66.51157804
70.44511149,69.08855060,66.65844768
70.62853774,69.38925815,66.78312607
70.80242281,69.69500429,67.00932676
70.97737993,69.97888079,67.13647084
71.07182676,70.17560034,67.28623499
70.36492281,69.43203259,66.70025729
69.03795026,67.50428816,65.52658662
68.43964408,66.23016724,64.79877787
68.45454545,65.99271012,64.73434820
68.45165094,65.89397513,64.69671955
68.24045883,65.50203688,64.41691681
68.04073756,65.06882504,64.13957976
68.22137650,65.18599914,64.30949828
68.66584477,65.74110206,64.72716552
68.70508148,65.82150515,64.77862350
68.60012864,65.70668954,64.66445111
68.63647084,65.74603345,64.66091338
68.81689537,66.01565180,64.83919383
69.03376930,66.31292882,65.08501286
69.18299743,66.71022727,65.20679674
69.40255146,67.00846913,65.46580189
69.51972556,67.24764151,65.69253859
69.67913808,67.52755146,65.76168525
69.74174528,67.66520154,65.81421527
69.85731132,67.92013293,66.03527015
70.01715266,68.15437393,66.14536878
70.17334906,68.43707118,66.31871784
70.40662521,68.78291166,66.54363208
70.56989708,69.14129503,66.72855918
70.74946398,69.41970412,66.94007290
70.71044168,69.49946398,66.92249142
69.66863208,68.32600772,66.04984991
68.54556175,66.47673671,64.96580189
68.26018439,65.63218268,64.42892367
68.31786021,65.47630789,64.42785163
68.17828045,65.21515866,64.23852916
67.86385077,64.71140652,63.92109777
67.67860206,64.34176672,63.75664666
67.90683962,64.56164237,63.94028731
68.33179674,65.14676244,64.33136792
68.38228988,65.23606346,64.40973413
68.28805746,65.11181389,64.27347770
68.36503002,65.18063894,64.36974700
68.59219554,65.52294168,64.57289880
68.85966981,65.87768010,64.83243997
69.02519297,66.22159091,65.05049314
69.22855918,66.52958834,65.20433105
69.32439966,66.80574614,65.35613208
69.46151372,67.04877787,65.50075043
69.60055746,67.28280446,65.61470840
69.65576758,67.54191681,65.74067324
69.84176672,67.79545455,65.98542024
70.01468696,68.09787736,66.14225986
70.19832762,68.43181818,66.29695540
70.41123499,68.74742710,66.49528302
70.55177959,69.02669383,66.63818611
70.72416381,69.31764580,66.80735420
70.81464408,69.57600772,66.94671955
70.95754717,69.85506003,67.07740137
71.19403945,70.16423671,67.27337050
71.35999142,70.46355060,67.47898799
71.37575043,70.54427530,67.50075043
70.23188250,69.24067324,66.62081904
68.91144940,67.20518868,65.33383362
68.53355489,66.21280017,64.79063036
68.57847341,66.00042882,64.65694683
68.47384220,65.63100343,64.51886792
68.08265437,64.97201973,64.09509005
67.78312607,64.45701115,63.79406089
67.82322041,64.38840051,63.78634220
68.28023156,64.92367067,64.18267581
68.54395369,65.28709262,64.43803602
68.45390223,65.18825043,64.37607204
68.48338336,65.19972127,64.37682247
68.65072899,65.40265866,64.53987993
68.90523156,65.75707547,64.78366209
69.15544597,66.07354202,64.98027444
69.34015866,66.38132504,65.21601630
69.48638508,66.62789451,65.34058748
69.58533448,66.88979417,65.44253859
69.72973842,67.16906089,65.58501286
69.78205403,67.46065609,65.63625643
69.97534305,67.74035163,65.86963979
70.14772727,68.03473413,66.03537736
70.33876501,68.34326758,66.28023156
70.53569897,68.68471269,66.44564751
70.69704117,68.93246141,66.56475129
70.81625214,69.18546312,66.74828473
70.94811321,69.44125214,66.88936535
71.13711407,69.75611063,67.10366638
71.29256003,70.11867496,67.33887221
71.44039451,70.34026587,67.41037736
71.23852916,70.18599914,67.19393225
70.00653945,68.65962693,66.23016724
69.13872213,67.15887650,65.37285592
69.08940823,66.68117496,65.05210120
69.10827616,66.52937393,65.00278731
68.92099057,66.11610206,64.80821184
68.59433962,65.57054031,64.43760720
68.46612350,65.25879074,64.30424528
68.68267581,65.49614065,64.54545455
69.08126072,66.04781304,64.87199828
69.10602487,66.12103345,64.89847770
69.03730703,66.04138079,64.82032590
69.10205832,66.12735849,64.85248714
69.28827187,66.40147942,65.05413808
69.46901801,66.67420669,65.27283448
69.63496998,66.98295455,65.42763722
69.76125643,67.25911235,65.70036449
69.92795883,67.57997427,65.76243568
70.04448971,67.76533019,65.96794597
70.10141509,68.01114923,66.05488851
70.18471269,68.25160806,66.09015866
70.37156947,68.54695540,66.31560892
70.51447256,68.78912950,66.44178816
70.68428388,69.05478130,66.61202830
70.82064751,69.33179674,66.78484134
70.95969125,69.64922813,66.94682676
71.11074185,69.92677959,67.13239708
71.07161235,69.96676672,67.09734134
70.09873499,68.85924099,66.24989280
69.19682676,67.34005146,65.40394511
68.97716552,66.72995283,65.04899228
69.00000000,66.64772727,65.09691252
68.91219983,66.41927530,64.90898370
68.70819039,66.01951115,64.65587479
68.68985849,65.84873499,64.58436964
68.98563465,66.25107204,64.89258148
69.18846484,66.58940823,65.13400515
69.06378645,66.47952401,65.05456690
69.01725986,66.46601630,64.99796312
69.09927101,66.53880789,65.10827616
69.25160806,66.77497856,65.31014151
69.38732847,67.07536449,65.42892367
69.57547170,67.36835334,65.59305317
69.68567753,67.61728130,65.75407376
69.79159520,67.84005146,65.88657804
69.85152230,68.00868353,65.90984134
69.94811321,68.19511149,66.05017153
70.04888508,68.36749571,66.14536878
70.22609348,68.70100772,66.37317753
70.40222985,68.99721269,66.54266724
70.53730703,69.28216123,66.65265866
70.62360635,69.51490137,66.73016724
70.43857204,69.32900943,66.63925815
69.40909091,67.88507719,65.71397942
68.59251715,66.50418096,64.91970412
68.53827187,66.07193396,64.62596484
68.53527015,65.94564751,64.63282590
68.34916381,65.62768010,64.42099057
68.14536878,65.21204974,64.17174099
68.18996569,65.21569468,64.18138937
68.65576758,65.74839194,64.61888937
68.69103774,65.87542882,64.68138937
68.58533448,65.75150086,64.57568611
68.57686535,65.77369211,64.58243997
68.73306175,65.97019726,64.73091767
68.94639794,66.29052316,64.94811321
69.07054031,66.58190395,65.11813894
69.20754717,66.84969983,65.28494854
69.34798456,67.10077187,65.41702401
69.44811321,67.32847341,65.54824185
69.55649657,67.52026158,65.72952401
69.61910377,67.75911235,65.77262007
69.76007719,67.94425386,65.92967410
69.85109348,68.19993568,66.05628216
70.06292882,68.48874357,66.20057890
70.25611063,68.82043310,66.37210549
70.41273585,69.08512007,66.57847341
70.45926244,69.26007719,66.66788165
69.85548885,68.54030875,66.10098628
68.67635077,66.83179674,65.04942110
68.20979846,65.77047599,64.38454117
68.16134220,65.45894082,64.25375214
67.95840480,65.10548885,64.06968268
67.66455832,64.54448971,63.72159091
67.37692967,64.08940823,63.44961407
67.41873928,64.08061750,63.52036878
67.90030017,64.66423671,63.95283019
68.09873499,64.93514151,64.11074185
67.98617067,64.84273156,63.98638508
68.01168525,64.86803173,64.03934391
68.20776158,65.12928816,64.17795883
68.42484991,65.45272298,64.46987564
68.61395798,65.78226844,64.62060463
68.75085763,66.08769297,64.84240995
68.87950257,66.34712693,64.92667238
69.03248285,66.58201115,65.06850343
69.11009863,66.86224271,65.23316895
69.29684820,67.10538165,65.41155660
69.45776158,67.37778731,65.58554889
69.55778302,67.66541595,65.73788593
69.75353774,67.96151372,65.92270583
69.90448113,68.29620497,66.10924099
70.06432247,68.57118353,66.22491424
70.22780875,68.85516724,66.39461835
70.36942539,69.14043739,66.55210120
70.53312607,69.36931818,66.74367496
70.71901801,69.66820326,66.91027015
70.91445111,70.03623499,67.05360206
71.05521012,70.27776587,67.16434391
70.80381647,70.08640652,67.00600343
69.59541166,68.56753859,66.05789022
68.77229846,67.06710978,65.14086621
68.66895369,66.64515437,64.95475986
68.61202830,66.43685678,64.80864065
68.38850772,66.00428816,64.54524014
68.11438679,65.41005575,64.23552744
68.00396655,65.09594768,63.99281732
68.25728988,65.37242710,64.25364494
68.66102058,65.91316467,64.62650086
68.68792882,65.99946398,64.71494425
68.63046741,65.95036449,64.64676244
68.74903516,66.15705403,64.80328045
68.91166381,66.38850772,64.98263293
69.09198113,66.72469983,65.11835334
69.28548456,67.06099914,65.31764580
69.42699400,67.32879503,65.51232847
69.57472127,67.59809177,65.61224271
69.69039451,67.83426244,65.77186964
69.84176672,68.11385077,65.87971698
70.02915952,68.40094340,66.12135506
70.15737564,68.69511149,66.27508576
70.29438250,69.01157804,66.41295026
70.49678388,69.29331046,66.57975986
70.65587479,69.56603774,66.81367925
70.85741852,69.86084906,66.96548027
71.03484134,70.14783448,67.15919811
71.20626072,70.42710120,67.35162950
71.31882504,70.69897084,67.47234134
71.45604631,70.99313894,67.61127787
71.56014151,71.25503859,67.72652230
71.73799314,71.56882504,67.92131218
71.89676244,71.85816895,68.14290309
72.04341767,72.11310034,68.30113636
72.27015437,72.46119211,68.49378216
72.34798456,72.77873070,68.59669811
72.30917667,72.83426244,68.66487993
71.26479417,71.56067753,67.80767581
70.34594768,69.93106775,66.74045883
70.14140223,69.25739708,66.43364065
70.13968696,69.12017581,66.40405232
69.94543310,68.76961835,66.15105060
69.58747856,68.14150943,65.80810463
69.35870497,67.59691252,65.53880789
69.43031732,67.60227273,65.58490566
69.78484134,68.04084477,65.88882933
69.86084906,68.18739280,65.97169811
69.73284734,68.05317324,65.84541166
69.73091767,68.05145798,65.88100343
69.89590480,68.21816038,66.02540738
70.02755146,68.41112779,66.17527873
70.17216981,68.68031732,66.33104631
70.33168954,68.95283019,66.44125214
70.43942967,69.17506432,66.56378645
70.58651372,69.38797170,66.71987564
70.65941252,69.56485849,66.79727702
70.82139794,69.77980274,67.00150086
70.94629074,70.02412093,67.12210549
71.12039022,70.27755146,67.24796312
71.27487136,70.51801029,67.39987136
71.44307461,70.78977273,67.58201115
71.52915952,71.05681818,67.72791595
71.63657804,71.29180961,67.83254717
71.79749142,71.53398370,67.97352058
71.85849057,71.76693825,68.14215266
72.01222127,71.99399657,68.27465695
72.10581046,72.26683105,68.38025300
72.31560892,72.53709262,68.61106346
72.41756003,72.81485849,68.77647942
72.21569468,72.70047170,68.63250429
71.14011578,71.26404374,67.71408662
70.34133791,69.72984563,66.74635506
70.14783448,69.19093053,66.47523585
70.15362350,69.06743139,66.46001286
69.95390223,68.72062607,66.27079760
69.68953688,68.17024014,65.91445111
69.56378645,67.87124786,65.83994425
69.87564322,68.19511149,66.16680961
70.05167238,68.46419383,66.31260720
69.89611921,68.33179674,66.16563036
69.84337479,68.23659949,66.08887221
69.94307461,68.30092196,66.15555317
70.08940823,68.57482847,66.34133791
70.25171527,68.86856775,66.50728988
70.42527873,69.13925815,66.68492710
70.55521012,69.33694254,66.84080189
70.66262864,69.52433533,66.93664237
70.74774871,69.70593911,67.01640223
70.82461407,69.85227273,67.05896226
71.00557461,70.09905660,67.28730703
71.12264151,70.32139794,67.38957976
71.27036878,70.58983705,67.51479417
71.38829331,70.86535163,67.66680961
71.51286449,71.10270154,67.81989708
71.60945540,71.35430961,67.99003002
71.75085763,71.60698971,68.15930532
71.95036449,71.86481561,68.30070755
71.95443825,72.11352916,68.35473842
71.79180961,71.97641509,68.23992281
70.72545026,70.49431818,67.28119640
69.85441681,68.85763293,66.41059177
69.57933105,68.24914237,66.04030875
69.58490566,68.09133791,66.01972556
69.38915094,67.66831046,65.79867067
69.04781304,67.06153516,65.37778731
68.91059177,66.65608919,65.17302744
69.13904374,66.91262864,65.42892367
69.47298456,67.32761578,65.77444254
69.44018010,67.34927101,65.76157804
69.33565609,67.25353774,65.64526158
69.39633362,67.33243997,65.71708834
69.57054031,67.57461407,65.88850772
69.81453688,67.88379074,66.09048027
70.00514580,68.19596913,66.23349057
70.08404803,68.43053173,66.42753002
70.21783877,68.71998285,66.56024871
70.35591767,68.93996569,66.68117496
70.44725557,69.12328473,66.75771870
70.53162521,69.34744854,66.90233705
70.73327616,69.67045455,67.08833619
70.94586192,69.93106775,67.25911235
71.09240995,70.17474271,67.38872213
71.26811750,70.46451544,67.58136792
71.39665523,70.74528302,67.70947684
71.56807461,71.02990995,67.90919811
71.69007290,71.28119640,68.06485849
71.82236278,71.56421527,68.21322899
71.95786878,71.80306604,68.37189108
72.02358491,72.04759863,68.47855918
72.20175815,72.29716981,68.61320755
72.37971698,72.62607204,68.83812178
72.55199400,72.87446398,69.00096484
72.55767581,72.94854202,68.98241852
71.57547170,71.78087479,68.12585763
70.32547170,69.67324185,66.91552316
69.77036878,68.53323328,66.30724700
69.77326329,68.28527015,66.23038165
69.67034734,67.90683962,66.03527015
69.27701544,67.27937393,65.62006861
68.99517581,66.64268868,65.24860635
69.03934391,66.47137650,65.15533877
69.40330189,66.94018010,65.53602058
69.60913379,67.25621784,65.74549743
69.57268439,67.21633791,65.74742710
69.53162521,67.16713122,65.71237136
69.65040738,67.28527015,65.79384648
69.88754288,67.63325472,66.00182247
70.11910377,67.95057890,66.20358062
70.28644940,68.20111492,66.39815609
70.40008576,68.46655232,66.47705832
70.55799743,68.70379503,66.69650515
70.66273585,68.97598628,66.82225557
70.81893225,69.19757719,67.03398370
70.98799314,69.47105489,67.14429674
71.16230703,69.72191252,67.31110635
71.36406518,70.04416810,67.54202401
71.51136364,70.32697256,67.65608919
71.70583190,70.58297599,67.84219554
71.86170669,70.86149228,68.04438250
71.98659949,71.14890652,68.08608491
72.16938250,71.41745283,68.29888508
72.30285163,71.63111063,68.42635077
72.46237136,71.86931818,68.57858062
72.61406518,72.14493997,68.74978559
72.84048027,72.47019726,68.96826758
72.98927959,72.75364494,69.16037736
72.65694683,72.42924528,68.84155232
71.40898370,70.63111063,67.71816038
70.45626072,68.92817324,66.78023156
70.25321612,68.32568611,66.43138937
70.25278731,68.18053173,66.40030017
70.00536021,67.68610635,66.13893654
69.78323328,67.02551458,65.70025729
69.62489280,66.66498714,65.51232847
69.88925815,66.92549314,65.72930961
70.31796741,67.45240137,66.12478559
70.28945111,67.51972556,66.14965695
70.30370926,67.46751715,66.11631647
70.39440395,67.56914666,66.20057890
70.58126072,67.86192110,66.44018010
70.80906947,68.16069897,66.65040738
71.00825472,68.51189966,66.80220840
71.15630360,68.80553173,67.00536021
71.31260720,69.07675815,67.16616638
71.42259863,69.29438250,67.31110635
71.55328045,69.55756861,67.39847770
71.70969125,69.81753859,67.54674099
71.90137221,70.10227273,67.74721269
72.06067753,70.39301029,67.94318182
72.18760720,70.68417667,68.09048027
72.34551887,70.99731990,68.24882075
72.54127358,71.28226844,68.45958405
72.71162093,71.58233276,68.57675815
72.86792453,71.84734134,68.73134648
73.02390652,72.07472127,68.90512436
73.13336192,72.30145798,69.06646655
73.31260720,72.56560892,69.18632075
73.47577187,72.83812178,69.33554889
73.62671527,73.11084906,69.47512864
73.57107633,73.17806604,69.51147084
72.53870069,71.83243997,68.58115352
71.39150943,69.93610635,67.50000000
71.00589623,69.04491852,67.06057033
71.05896226,68.88829331,66.99528302
70.97620069,68.60891938,66.75879074
70.71012007,68.04524014,66.46483705
70.54845626,67.63443396,66.27830189
70.77412093,67.86588765,66.52669383
71.12521441,68.33962264,66.82997427
71.08844340,68.31614494,66.78805746
71.04009434,68.25171527,66.70969125
71.12360635,68.31207118,66.78805746
71.32193396,68.56378645,66.91627358
71.47652230,68.88239708,67.16863208
71.67099057,69.19028731,67.30756861
71.83083190,69.44661235,67.47148370
71.96976844,69.70368782,67.58533448
72.03023156,69.90437393,67.72813036
72.12403516,70.11031304,67.85345197
72.25804031,70.35302316,67.96966123
72.42388508,70.62457118,68.16466552
72.50804031,70.90512436,68.23724271
72.70572470,71.17849485,68.47716552
72.84584048,71.44468268,68.64172384
72.99410377,71.72973842,68.75139365
73.13293310,71.93739280,68.89279588
73.29834906,72.20636792,69.00032161
73.41177101,72.42828045,69.17292024
73.51854631,72.64826329,69.26854631
73.64515437,72.89322470,69.40394511
73.81560892,73.11042024,69.56968268
74.01404374,73.37725129,69.78848628
74.12521441,73.65909091,69.90501715
74.18514151,73.81357204,69.95100772
73.35420240,72.79180961,69.24249571
71.91734563,70.73724271,67.93792882
71.31121355,69.35066467,67.24410377
71.26918954,69.02240566,67.05778302
71.22148370,68.79009434,66.91123499
70.91187822,68.20304460,66.55145798
70.57879503,67.58972985,66.29148799
70.54813465,67.40876930,66.24410377
70.93567753,67.83276158,66.59026587
71.14804889,68.18042453,66.80692539
71.07965266,68.11138508,66.71129931
71.05799743,68.10066467,66.66155660
71.16713122,68.21580189,66.74238851
71.40898370,68.50268010,67.02090480
71.65769726,68.88904374,67.23209691
71.80081475,69.13979417,67.38036021
71.91305746,69.42099057,67.52240566
72.08522727,69.67635077,67.70979846
72.13786449,69.90930532,67.78044597
72.32236278,70.18149657,67.94436106
72.45561750,70.42538593,68.05167238
72.60313036,70.69489708,68.21933962
72.76908233,70.96633791,68.35463122
72.88807890,71.23970840,68.51972556
73.04363208,71.50482419,68.65469554
73.15898370,71.79320326,68.80220840
73.30617496,72.04245283,69.02015437
73.44243139,72.28784305,69.12339194
73.55896226,72.53923671,69.26457976
73.76961835,72.82343482,69.42956690
73.94018010,73.12242710,69.66916810
73.91487993,73.19489708,69.60741852
72.94189537,72.02808748,68.80338765
71.64386792,70.00707547,67.63271870
71.14097341,68.80306604,67.01661664
71.12006861,68.50814751,66.79095197
70.98252573,68.13561321,66.61267153
70.58619211,67.54309605,66.20883362
70.23370497,66.93353345,65.87585763
70.22041166,66.82032590,65.89236707
70.64472556,67.29202401,66.29352487
70.89022298,67.65716123,66.48370497
70.83619211,67.61170669,66.41659520
70.84798456,67.61385077,66.44746998
70.97180532,67.77755146,66.56764580
71.20819039,68.07482847,66.78880789
71.46076329,68.43953688,66.99957118
71.65094340,68.74185249,67.19425386
71.82504288,69.03602058,67.26179245
71.88614923,69.27722985,67.35977702
72.07697256,69.51222127,67.55917667
72.21826758,69.77122642,67.71505146
72.38143225,70.09155232,67.87843053
72.48156089,70.33704974,67.99828473
72.61213551,70.58640652,68.17560034
72.82450686,70.88861492,68.34680532
72.97405660,71.18910806,68.52615780
73.12221269,71.47298456,68.65866209
73.25396655,71.72995283,68.84809177
73.37414237,72.00600343,69.00793310
73.51961835,72.27948113,69.10752573
73.63561321,72.48231132,69.24710549
73.78494854,72.72984563,69.46376501
73.99003002,73.07665094,69.58415523
74.12478559,73.33812178,69.69125214
74.03870069,73.29813465,69.68642796
72.86159949,71.82665094,68.68213979
71.67602916,69.92452830,67.48370497
71.34969983,69.04288165,67.01286449
71.43674957,68.84734134,66.94982847
71.23006003,68.44532590,66.74571184
70.85430961,67.75739708,66.33222556
70.58404803,67.27186964,66.06453688
70.64740566,67.27562178,66.12617925
71.04856346,67.78955832,66.50075043
71.18825043,67.94768439,66.59798456
71.11974700,67.86610206,66.56271441
71.12703688,67.90019297,66.54320326
71.29888508,68.11963979,66.71633791
71.51029160,68.39751286,66.91959691
71.63539880,68.67956690,66.99860635
71.83972985,68.94286021,67.17956690
71.99924957,69.21644511,67.33629931
72.06957547,69.44028731,67.46001286
72.24292453,69.65951973,67.61063465
72.31260720,69.88657804,67.69768439
72.42259863,70.13636364,67.84777015
72.56046312,70.40630360,67.98284734
72.74120926,70.67517153,68.12114065
72.85280875,70.94307461,68.29170240
72.98756432,71.19168096,68.37821612
73.11492281,71.44382504,68.56882504
73.22116209,71.68106775,68.67828045
73.32429245,71.92141938,68.84616209
73.43053173,72.14987136,68.99056604
73.59283877,72.40008576,69.09734134
73.70722556,72.63218268,69.24045883
73.87435678,72.92431389,69.41766724
73.93578473,73.09080189,69.48166810
73.07675815,72.12199828,68.78409091
71.77765866,70.17795883,67.57975986
71.22920240,68.98970840,66.91702401
71.27004717,68.75246569,66.81014151
71.24324614,68.58351201,66.74689108
70.94661235,68.05403087,66.44425386
70.68074614,67.59605489,66.16487993
70.75857633,67.62114065,66.27551458
71.13304031,68.09123070,66.56657376
71.13593482,68.12457118,66.59326758
71.00653945,67.95936964,66.46858919
71.02444254,67.94275300,66.49485420
71.12650086,68.12435678,66.58319039
71.32246998,68.41187822,66.77251286
71.49153087,68.67249142,66.93921527
71.58930103,68.88346913,67.06271441
71.77530017,69.20090051,67.23885077
71.85538165,69.33093911,67.31936106
71.91487993,69.54352487,67.39686964
71.99978559,69.78216123,67.55381647
72.12189108,70.00117925,67.61631647
72.25032161,70.21065609,67.80177959
72.34305317,70.46891081,67.97191252
72.48820755,70.71054889,68.11685249
72.66144940,70.98241852,68.22963122
72.78987993,71.27873070,68.37993139
72.92066895,71.52830189,68.51565180
72.93503431,71.67688679,68.57761578
72.34766295,70.95572470,68.01640223
71.03355489,69.12575043,66.91091338
70.46515866,67.77669383,66.17292024
70.37692967,67.45047170,66.02229846
70.28998714,67.20851201,65.89954974
69.96044168,66.70936964,65.56314322
69.63765009,66.15523156,65.26415094
69.60988422,66.07064751,65.22287736
70.01061321,66.53419811,65.60345197
70.14772727,66.79095197,65.69318182
70.07890223,66.70840480,65.63572041
70.08715695,66.69221698,65.65019297
70.20947684,66.84305317,65.79716981
70.45358062,67.17270583,65.99581904
70.65147942,67.52798027,66.21215695
70.81721698,67.83179674,66.32493568
70.99807033,68.06367925,66.51608062
71.12414237,68.28451973,66.63614923
71.21955403,68.50450257,66.71505146
71.30263722,68.71773156,66.88046741
71.47416381,68.99324614,67.05177959
71.58704974,69.27530017,67.17988851
71.74474700,69.56743139,67.35966981
71.88196827,69.84144511,67.51125643
71.97469983,70.09455403,67.65308748
72.13228988,70.34584048,67.82868782
72.27015437,70.60591767,68.00771870
72.44157376,70.95529588,68.16605918
72.53409091,71.19168096,68.30981990
72.17034734,70.88239708,68.01254288
70.82579331,69.04984991,66.83351201
69.90630360,67.26329331,65.81946827
69.64376072,66.62596484,65.39719125
69.55713979,66.32986707,65.28912950
69.21719554,65.79931389,64.94018010
68.75846913,65.09487564,64.48724271
68.56121355,64.70572470,64.33737136
68.76254288,64.91219983,64.56335763
69.19425386,65.49313894,64.98306175
69.24120926,65.60077187,64.97041166
69.18053173,65.53559177,64.89408233
69.23295455,65.64397513,64.97673671
69.42367067,65.90801887,65.15308748
69.70561750,66.24292453,65.38379074
69.88164666,66.55467410,65.57354202
70.07268439,66.83404803,65.77444254
70.19178816,67.10216552,65.87017581
70.36449400,67.33554889,66.05038593
70.52058319,67.58276158,66.19768439
70.69243139,67.88668525,66.38925815
70.80038593,68.14493997,66.52915952
70.95636792,68.45701115,66.70358062
71.09090909,68.74828473,66.82075472
71.22480703,69.01897513,67.03376930
71.33908662,69.29534734,67.16027015
71.49946398,69.56936106,67.33072470
71.64954974,69.90040738,67.46215695
71.78291166,70.14011578,67.65426672
71.85538165,70.39140223,67.75010720
71.93964408,70.56593053,67.81378645
72.16691681,70.91091338,68.00139365
72.35656089,71.23413379,68.23456261
72.41348628,71.44157376,68.38218268
71.65276587,70.61310034,67.74088765
70.09476844,68.39429674,66.31603774
69.28880789,66.84433962,65.43417667
69.21740995,66.35141509,65.19897084
69.09626930,66.03001715,65.00879074
68.65458834,65.37307033,64.58126072
68.26468696,64.70529588,64.20829760
68.16402230,64.39901372,64.06946827
68.49742710,64.80574614,64.39386792
68.88025300,65.31893225,64.72952401
68.83051029,65.31828902,64.69500429
68.80113636,65.28033877,64.66091338
68.89536878,65.41337907,64.74228130
69.13379074,65.70175815,65.00879074
69.32579331,66.04213122,65.15105060
69.54984991,66.35002144,65.34980703
69.72137650,66.59015866,65.53398370
69.89922813,66.87542882,65.72555746
70.02454974,67.13647084,65.84830617
70.13057461,67.37843053,65.95711835
70.26265009,67.61921098,66.13121784
70.41370069,67.91327187,66.25975557
70.56314322,68.19307461,66.52262007
70.68728559,68.47716552,66.61545883
70.88700686,68.79095197,66.77615780
71.01951115,69.06646655,66.94018010
71.10237993,69.30821184,67.03055317
71.26565180,69.57354202,67.23027444
71.36792453,69.82718696,67.38207547
71.48917238,70.11760292,67.55842624
71.62296312,70.33629931,67.67570755
71.76018439,70.57600772,67.84358919
71.95197256,70.89729846,67.99785592
72.12521441,71.19961407,68.15587479
72.14912093,71.32472127,68.18964408
71.12532161,70.18406947,67.34294597
69.58876501,67.92281304,65.95261578
68.96162093,66.60248714,65.15030017
68.95175815,66.25300172,65.04459691
68.83404803,65.99592624,64.85656089
68.54116638,65.41702401,64.52079760
68.18085334,64.86931818,64.27047599
68.23788593,64.85752573,64.30328045
68.73477702,65.42667238,64.72212693
68.78966552,65.54309605,64.75900515
68.58994425,65.39504717,64.58501286
68.65501715,65.40287307,64.61771012
68.84240995,65.58597770,64.78044597
69.04599057,65.89912093,64.99689108
69.29695540,66.23156089,65.18996569
69.48584906,66.55102916,65.38164666
69.63218268,66.80499571,65.52905232
69.74785592,67.02851630,65.74035163
69.78709262,67.19789880,65.77379931
69.91423671,67.43310463,65.88421955
70.06721698,67.67249142,66.09294597
70.19500429,67.97737993,66.23274014
70.37532161,68.22094768,66.39483276
70.46944683,68.52154803,66.54298885
70.66530875,68.80145798,66.68739280
70.82461407,69.12435678,66.86213551
70.95540309,69.37542882,67.04502573
70.90566038,69.43589194,67.01007719
69.86181389,68.19822041,66.15448113
68.60988422,66.21537307,64.97587907
68.12714408,65.19446827,64.34112350
68.05574614,64.89193825,64.20711835
67.91959691,64.63100343,64.02379931
67.60409520,64.10002144,63.70936964
67.38700686,63.70733276,63.46762436
67.60966981,63.91198542,63.70079331
68.04245283,64.50385935,64.15287307
68.09841338,64.62542882,64.17345626
68.00514580,64.50343053,64.06775300
68.06303602,64.56367925,64.13507719
68.22630789,64.83093911,64.25868353
68.50471698,65.21676672,64.47598628
68.76179245,65.56067753,64.79738422
68.98927959,65.87821612,64.97941681
69.13582762,66.14869211,65.12660806
69.29877787,66.40898370,65.22137650
69.41487993,66.64622642,65.46162093
69.54899228,66.87746569,65.58908662
69.64611921,67.12853774,65.71087050
69.84048027,67.45068611,65.92088336
70.02358491,67.75493139,66.08683533
70.17013293,68.07965266,66.27755146
70.32622213,68.38325472,66.45679674
70.49088765,68.62982419,66.57279160
70.61728130,68.91616638,66.70861921
70.73659949,69.21151372,66.88561321
70.87789451,69.47116209,67.07171955
71.01608062,69.72277015,67.22963122
71.17645798,69.98198971,67.34455403
71.37768010,70.30585334,67.52883791
71.53098199,70.57536449,67.71387221
71.47930961,70.64740566,67.69629074
70.14343911,69.13379074,66.60570326
68.58683533,66.70433105,65.13379074
68.00632504,65.47266295,64.42806604
68.01790309,65.14183105,64.28762864
67.80445969,64.72491424,64.01436535
67.31753859,63.95883362,63.53945111
66.93621355,63.29427530,63.17356346
66.91616638,63.15437393,63.09584048
67.37092624,63.68524871,63.55124357
67.67227702,64.10752573,63.81485849
67.57064751,64.06850343,63.69307461
67.58404803,64.06882504,63.72555746
67.74206690,64.25128645,63.87371355
67.99592624,64.60098628,64.12671527
68.27101201,64.95969125,64.41187822
68.51136364,65.26007719,64.58769297
68.65201544,65.53494854,64.73391938
68.84573328,65.84873499,64.87746569
68.97534305,66.06389365,65.05317324
69.11706690,66.32161235,65.21183533
69.25289451,66.62039022,65.33608491
69.41595197,66.89751286,65.57011149
69.58115352,67.19093053,65.70872642
69.76640223,67.49860635,65.90726844
69.90062178,67.79877787,66.09894940
70.04191681,68.06657376,66.25246569
70.18589194,68.36063465,66.43396226
70.32043310,68.64526158,66.62575043
70.48895798,68.94693396,66.69864923
70.61985420,69.24099485,66.86449400
70.83051029,69.54363208,67.06335763
70.95229417,69.76511578,67.23638508
71.08780017,70.01318611,67.37360635
71.30542453,70.29406089,67.51983276
71.49431818,70.64376072,67.73767153
71.68310463,70.99656947,67.93846484
71.65973413,71.12993139,67.98349057
70.31710978,69.55660377,66.88636364
68.66734563,67.14719125,65.36095626
68.03494854,65.80210120,64.56110635
68.07890223,65.44789880,64.46012007
67.90737564,64.99592624,64.16016295
67.47759434,64.24924957,63.68985849
67.08919383,63.59927101,63.29888508
67.03730703,63.42560034,63.27251286
67.49174528,63.92806604,63.63539880
67.79373928,64.36620926,63.96826758
67.73895798,64.28677101,63.87746569
67.71119211,64.26522298,63.84712693
67.81550172,64.39762007,63.98509863
68.05381647,64.66831046,64.16552316
68.27605060,64.99496141,64.33801458
68.46494425,65.34101630,64.59423242
68.73295455,65.67849485,64.78312607
68.86888937,65.95293739,64.95293739
68.98306175,66.19811321,65.07761578
69.09927101,66.42216981,65.22598628
69.22855918,66.68825043,65.39386792
69.39193825,66.98456261,65.55060034
69.53537736,67.28623499,65.72405660
69.72341338,67.57718696,65.89365352
69.85313036,67.86835334,66.09412521
70.02605060,68.16520154,66.26104202
70.15458834,68.43674957,66.37585763
70.25771870,68.67753002,66.56217839
70.43181818,69.00171527,66.70883362
70.57429245,69.26661664,66.90791166
70.76189966,69.56764580,67.06721698
70.80510292,69.69575472,67.10613208
69.64108062,68.42024014,66.20090051
68.23681389,66.18878645,64.81700257
67.70379503,64.99689108,64.06164237
67.69200257,64.67313465,63.95465266
67.60623928,64.47952401,63.81635935
67.28837907,63.97898799,63.52251286
67.02915952,63.56539451,63.26522298
67.26039880,63.78269726,63.50139365
67.69543310,64.33737136,63.85945540
67.69135935,64.37617925,63.88046741
67.57032590,64.23713551,63.76822470
67.62178388,64.30445969,63.83083190
67.82665094,64.54877787,64.00868353
68.10645369,64.89397513,64.25010720
68.32879503,65.23724271,64.49924957
68.49399657,65.54116638,64.69468268
68.63722127,65.78602058,64.81260720
68.75000000,66.02873070,64.94082333
68.87575043,66.26961835,65.11310034
68.95947684,66.49056604,65.19168096
69.12317753,66.72266295,65.36159949
69.26468696,66.95486707,65.55735420
69.39054460,67.27690823,65.66584477
69.59841338,67.67259863,65.82804460
69.80499571,67.94393225,66.12231990
69.90673242,68.18396226,66.25257290
69.60205832,67.94511149,66.01050600
68.18921527,66.16262864,64.78119640
67.17999571,64.33801458,63.62167667
66.81207118,63.60323756,63.24860635
66.73370497,63.38507719,63.12714408
66.47963122,62.92560034,62.82439966
66.17131218,62.36728130,62.58619211
65.94929245,62.08544168,62.35323756
66.32579331,62.43535592,62.66241424
66.75911235,63.00246569,63.07150515
66.70443825,63.04641938,63.06207118
66.65448113,63.02969554,63.02176244
66.77862350,63.15555317,63.12339194
67.02251286,63.49485420,63.40330189
67.32397084,63.87049743,63.69596913
67.55521012,64.20358062,63.78827187
67.75557461,64.52186964,63.99035163
67.91841767,64.76425815,64.17506432
68.05521012,65.00804031,64.36331475
68.19500429,65.27605060,64.45422384
68.36342196,65.56024871,64.64665523
68.48070326,65.83790738,64.81303602
68.65126501,66.14826329,64.95422384
68.83072470,66.43728559,65.18321184
68.96194254,66.72995283,65.37639365
69.13829331,67.05210120,65.58469125
69.31314322,67.35688250,65.72695111
69.48960120,67.63411235,65.91434391
69.61009863,67.93192539,66.05306604
69.74731990,68.20786878,66.23359777
69.89011578,68.43921527,66.37660806
70.05671098,68.73102487,66.52304889
70.23820755,69.07783019,66.73692110
70.43771441,69.38175386,66.92013293
70.04834906,69.03355489,66.62789451
68.24603345,66.81507290,65.09573328
67.00300172,64.67602916,63.79738422
66.76093482,63.87607204,63.31432247
66.69361063,63.58533448,63.19897084
66.32322041,62.98338336,62.85774014
65.91638079,62.29459691,62.36535163
65.60559605,61.80027873,62.13368353
65.79288165,61.91252144,62.34562607
66.33190395,62.54931389,62.75943396
66.45829760,62.79942110,62.90383791
66.40533877,62.75589623,62.80821184
66.44929245,62.84401801,62.88775729
66.68664237,63.10516724,63.09680532
66.93299743,63.45186535,63.29834906
67.19039451,63.82997427,63.56689537
67.38636364,64.09391081,63.71355060
67.59551887,64.40126501,63.88196827
67.76125643,64.67935249,64.10988422
67.90876930,64.91841767,64.21708834
68.09787736,65.22244854,64.36867496
68.23917238,65.51854631,64.58608491
68.36277873,65.81110635,64.77915952
68.57482847,66.12221269,65.00493139
68.76039880,66.45486707,65.17141938
68.90973413,66.76522298,65.35227273
69.08940823,67.07397084,65.54952830
69.28612779,67.36996141,65.76468696
69.40866209,67.69125214,65.95475986
69.54749142,67.98295455,66.10795455
69.73499142,68.27165523,66.31518010
69.90137221,68.56753859,66.43503431
70.08083190,68.87993139,66.66445111
70.23306175,69.12457118,66.82590051
70.44661235,69.45690395,66.95733276
70.65158662,69.81839623,67.15823328
70.77808748,70.18031732,67.35334477
70.73145369,70.21601630,67.33565609
69.27251286,68.53795026,66.10634648
67.60002144,66.05242281,64.52433533
66.98413379,64.75943396,63.83040309
67.04395369,64.51908233,63.75943396
66.97051887,64.18256861,63.49217410
66.59283877,63.53516295,63.14172384
66.25482419,62.97330617,62.78912950
66.33136792,62.96001286,62.86481561
66.82879503,63.51168525,63.31743139
67.03280446,63.76779588,63.47469983
66.91873928,63.68203259,63.36213551
66.93449828,63.68771441,63.37103345
67.08608491,63.87124786,63.51275729
67.34176672,64.18867925,63.77229846
67.57557890,64.53548456,63.98509863
67.81453688,64.88228988,64.19060892
68.05113636,65.22373499,64.41262864
68.13336192,65.50343053,64.52637221
68.23606346,65.70111492,64.68932247
68.34626930,65.95626072,64.81518010
68.48820755,66.23177530,65.00364494
68.64440395,66.54427530,65.22159091
68.85313036,66.87178388,65.40137221
69.04063036,67.15769726,65.62039022
69.21419383,67.50085763,65.77637221
69.35849057,67.79095197,65.95475986
69.48477702,68.06518010,66.07568611
69.66541595,68.34573328,66.21151372
69.86985420,68.61620926,66.47920240
69.99678388,68.94103774,66.58876501
70.13046741,69.23123928,66.75782590
69.74313894,68.85184391,66.40780446
68.06357204,66.78462693,64.97587907
66.90137221,64.89322470,63.79974271
66.72759434,64.22437822,63.47652230
66.83812178,64.14622642,63.49828473
66.70615352,63.78484134,63.29706261
66.38861492,63.25117925,62.92699400
66.28644940,63.00664666,62.84305317
66.71826758,63.47191252,63.15823328
67.05928388,63.88218268,63.52326329
67.01843911,63.87114065,63.44832762
66.93728559,63.77304889,63.39376072
67.06721698,63.91798885,63.49731990
67.34326758,64.28602058,63.78409091
67.65608919,64.70197256,64.06217839
67.84251715,65.03827187,64.26168525
68.00514580,65.33168954,64.42945969
68.11084906,65.60463122,64.54202401
68.21858919,65.85881218,64.73209691
68.34316038,66.08008148,64.90576758
68.48434820,66.33447684,65.04609777
68.68042453,66.63604202,65.23445540
68.86342196,66.94060892,65.42731561
69.03945111,67.27851630,65.62221269
69.20379503,67.57536449,65.81614494
69.31003431,67.86620926,65.92624357
69.49088765,68.16648799,66.13711407
69.71740995,68.50064322,66.31753859
69.90533877,68.80070755,66.51575901
69.93942967,69.00653945,66.53355489
68.97502144,67.94929245,65.74045883
67.29373928,65.58254717,64.26522298
66.50986278,64.09283877,63.32268439
66.45926244,63.70111492,63.14987136
66.40512436,63.40834048,62.99067324
66.05413808,62.81571612,62.61052744
65.70668954,62.27337050,62.29202401
65.66016295,62.07439966,62.21290738
66.09133791,62.56946827,62.58640652
66.48906518,63.08083190,63.02980274
66.44875643,63.04373928,62.96419383
66.40115780,63.02294168,62.95283019
66.58629931,63.24195969,63.06335763
66.83812178,63.55981990,63.31496569
67.13464837,63.97062607,63.55060034
67.38089623,64.30521012,63.78441252
67.54502573,64.59648370,63.94596913
67.72930961,64.86202830,64.11481561
67.77765866,65.10934820,64.28537736
67.95229417,65.40984134,64.44393225
68.07900943,65.70315180,64.62296312
68.25482419,65.96215695,64.76104202
68.45840480,66.28880789,64.99635506
68.60355918,66.59391081,65.11342196
68.76725986,66.88304031,65.35366638
68.95926244,67.20840480,65.51329331
69.15490995,67.57171955,65.77262007
69.29448971,67.80156518,65.88732847
69.39997856,68.06271441,66.04513293
69.55949828,68.34616209,66.21644511
69.74506861,68.65394511,66.39515437
70.01876072,69.01189966,66.64054460
70.05681818,69.20047170,66.69210978
69.00825472,68.10216552,65.82343482
67.24388937,65.66991852,64.25439537
66.44457547,64.08587050,63.28312607
66.43567753,63.65823328,63.10741852
66.29609777,63.29931389,62.89451115
65.89397513,62.64161664,62.48381218
65.51661664,62.01254288,62.11009863
65.42624357,61.78623499,62.03516295
65.84680532,62.17849485,62.36631647
66.24839194,62.71537307,62.75289451
66.23402659,62.73938679,62.70679674
66.20947684,62.74764151,62.69468268
66.36824614,62.93428388,62.86438679
66.59476844,63.22062607,63.06496569
66.86256432,63.58211835,63.31753859
67.10666810,63.92141938,63.54899228
67.29952830,64.22727273,63.65308748
67.44318182,64.42474271,63.78730703
67.55124357,64.65566038,63.93053173
67.72084048,64.94575472,64.13743568
67.85870497,65.26093482,64.30424528
68.03516295,65.52358491,64.49442539
68.21451544,65.83286878,64.66670240
68.32975986,66.12800172,64.86749571
68.50171527,66.44489708,65.05060034
68.69864923,66.71665952,65.24967839
68.86588765,67.03548456,65.43213979
69.01908233,67.33426244,65.57525729
69.07815180,67.58715695,65.71151372
69.26951115,67.87114065,65.88464837
69.49796312,68.22394940,66.10452401
69.71955403,68.54352487,66.28730703
69.89097341,68.82536449,66.54834906
69.36931818,68.40490995,66.12339194
67.62607204,66.23241852,64.57032590
66.50846913,64.24410377,63.32622213
66.33865780,63.52605060,63.02090480
66.36835334,63.36127787,62.95583190
66.10763293,62.87757290,62.62950257
65.72641509,62.29481132,62.29759863
65.59680532,62.06228559,62.16841767
65.99421098,62.49678388,62.51243568
66.33865780,62.94629074,62.82493568
66.25900515,62.89794168,62.74764151
66.23852916,62.85280875,62.68428388
66.32568611,62.95668954,62.78709262
66.49710549,63.20465266,62.95165094
66.78784305,63.58029588,63.20443825
67.04824185,63.92474271,63.40587479
67.25900515,64.26801029,63.65716123
67.43825043,64.56989708,63.79888508
67.50396655,64.78612779,63.94843482
67.64236707,65.02251286,64.08940823
67.76125643,65.26168525,64.25954117
67.90083619,65.55821184,64.41970412
68.09305317,65.82268439,64.64536878
68.21419383,66.12285592,64.81303602
68.37950257,66.40094340,64.91059177
68.57279160,66.73874357,65.14847770
68.73499142,67.06989708,65.28516295
68.90705403,67.34830617,65.51983276
69.02208405,67.59476844,65.67988851
68.25728988,66.85999142,65.02144082
66.69328902,64.64247427,63.58415523
65.88336192,63.09841338,62.61749571
65.77487136,62.64129503,62.38314751
65.72459262,62.47437822,62.32107633
65.44972127,62.02690823,62.06743139
65.19200257,61.57129074,61.75139365
65.23123928,61.60002144,61.79749142
65.73584906,62.24249571,62.31475129
65.94682676,62.49356775,62.50214408
65.85902659,62.38840051,62.38346913
65.88100343,62.42903087,62.40973413
66.07536449,62.65126501,62.59358919
66.35109348,63.04105918,62.87660806
66.60591767,63.42045455,63.08426244
66.83780017,63.75782590,63.29577616
67.01200686,64.06475129,63.48885077
67.16477273,64.31335763,63.69093053
67.28205403,64.53977273,63.81207118
67.41434391,64.83608491,63.90233705
67.52873070,65.07783019,64.11620926
67.72084048,65.36599485,64.29481132
67.88968696,65.69093053,64.48681389
68.06421527,66.01725986,64.71816038
68.26801029,66.34541166,64.90008576
68.44586192,66.63068182,65.02733705
68.55831904,66.89665523,65.20068611
68.74571184,67.24506861,65.40180103
68.93953688,67.58983705,65.64493997
69.15566038,67.91423671,65.84283877
69.12832333,67.94500429,65.80628216
67.75064322,66.46805317,64.75857633
66.15608919,64.07397084,63.14622642
65.58994425,62.79256003,62.44864923
65.57343482,62.45079331,62.32750858
65.34798456,62.09755575,62.07332762
64.94275300,61.46290738,61.63164666
64.62253431,60.92720840,61.29427530
64.65941252,60.86138508,61.32214837
65.17484991,61.50889794,61.83522727
65.49731990,61.92570755,62.11653087
65.41509434,61.86320755,62.07504288
65.43653516,61.89108062,62.07139794
65.60666810,62.11610206,62.24131647
65.90844768,62.49635506,62.49978559
66.20465266,62.90598199,62.71773156
66.44243139,63.23531304,62.93385506
66.62210549,63.53612779,63.11331475
66.78098199,63.84980703,63.24539022
66.94907804,64.13025300,63.44929245
67.06432247,64.37950257,63.69339623
67.21590909,64.65801887,63.83640652
67.38239708,64.96430103,64.05499571
67.57622213,65.31271441,64.22566467
67.73659949,65.62939537,64.38282590
67.90694683,65.94339623,64.58061750
68.12049743,66.23434820,64.78730703
68.27819468,66.55542453,64.99260292
68.46280017,66.85988422,65.20658233
68.50996998,67.09573328,65.23810034
68.72384220,67.42367067,65.53344768
69.03259005,67.81989708,65.77937393
69.24078045,68.23241852,65.98027444
69.32622213,68.42999571,66.06335763
68.12768010,67.11803173,65.10581046
66.32129074,64.63689966,63.41541595
65.55606775,63.09594768,62.47866638
65.53966552,62.73734991,62.36599485
65.40062178,62.37918096,62.13432676
64.97780875,61.67034734,61.74153087
64.61899657,61.07161235,61.40866209
64.57032590,60.96333619,61.34519726
65.02401372,61.47341338,61.72598628
65.40394511,61.98177530,62.12692967
65.41820326,62.01125643,62.11267153
65.40426672,61.98788593,62.09551887
65.57643654,62.19564751,62.24045883
65.86717410,62.57750858,62.48852916
66.15694683,62.94425386,62.78687822
66.40780446,63.33512007,62.98091767
66.60420240,63.64815609,63.14965695
66.75728988,63.93396226,63.37778731
66.89108062,64.20347341,63.49013722
67.07579331,64.52090480,63.72587907
67.20690395,64.79566895,63.89965695
67.39611921,65.11674528,64.06164237
67.61063465,65.45218696,64.31110635
67.80735420,65.79213122,64.49539022
67.98767153,66.12960978,64.68664237
68.13689966,66.45272298,64.93664237
68.30971269,66.78398370,65.07043310
68.52272727,67.07933105,65.29502573
68.65458834,67.34219554,65.43889365
68.79792024,67.62510720,65.61159949
69.01522298,67.94296741,65.82825901
69.22405660,68.30381647,66.04288165
69.44071612,68.68321184,66.20379503
69.25053602,68.57922384,66.10473842
67.51779588,66.59305317,64.70132933
65.94757719,64.26254288,63.16863208
65.55317324,63.26007719,62.58490566
65.65876930,63.03484134,62.52690823
65.46783877,62.69811321,62.34155232
65.13164666,62.06818182,61.92988851
64.90458834,61.63743568,61.64815609
65.17763722,61.90469554,61.92549314
65.67677959,62.50139365,62.37660806
65.68417667,62.54888508,62.38314751
65.60945540,62.46022727,62.28569897
65.65030017,62.53473413,62.34969983
65.87178388,62.80231561,62.55981990
66.12993139,63.17216981,62.78451973
66.36503002,63.52733705,63.00439537
66.59916381,63.89547599,63.29020154
66.76007719,64.24163808,63.50278731
66.89301029,64.47255575,63.60999142
67.01661664,64.68213979,63.73574185
67.09755575,64.92216981,63.88529160
67.27165523,65.20561750,64.12457118
67.47041166,65.51329331,64.28644940
67.67141938,65.83908662,64.46194254
67.80413808,66.19586192,64.62039022
68.02744425,66.48584906,64.88186106
68.20154374,66.75493139,65.02122642
68.40480274,67.06003431,65.22920240
68.59326758,67.37800172,65.43696398
68.78548456,67.67677959,65.65726844
68.75568182,67.78934391,65.62768010
67.30563894,66.24581904,64.45743997
65.79020154,63.95272298,62.92099057
65.22480703,62.79942110,62.26275729
65.29802744,62.61513722,62.22941681
65.24281732,62.38797170,62.06828902
64.93106775,61.83801458,61.77026158
64.73563465,61.45454545,61.51650943
64.98284734,61.69103774,61.78044597
65.51747427,62.31057033,62.25439537
65.51329331,62.38765009,62.24828473
65.44864923,62.30263722,62.15598199
65.48359777,62.35152230,62.17870926
65.75235849,62.64515437,62.41573756
66.05906947,63.09444683,62.72480703
66.27369211,63.47802316,62.93406947
66.45465266,63.77562178,63.17720840
66.61299314,64.05381647,63.32954545
66.78430532,64.33726415,63.52379931
66.89901372,64.58747856,63.72169811
67.02154803,64.83008148,63.80199400
67.20465266,65.09680532,64.02776587
67.34884220,65.40544597,64.22298456
67.56410806,65.73091767,64.44146655
67.75064322,66.10355918,64.63957976
67.91391509,66.44393225,64.76597341
68.12285592,66.71097770,65.00278731
68.28795026,66.97984563,65.16745283
68.50471698,67.30617496,65.41788165
68.70819039,67.65437393,65.60162950
68.87242710,67.93567753,65.75857633
68.11417238,67.26961835,65.16155660
66.29331046,64.90801887,63.52808748
65.19832762,63.02186964,62.38186106
65.05960549,62.42560034,62.00536021
64.98424099,62.11052744,61.87296312
64.66520154,61.50954117,61.53934391
64.23960120,60.87768010,61.11417238
64.09830617,60.56078473,61.01082762
64.44725557,60.92967410,61.31496569
64.92903087,61.56067753,61.75321612
64.97963122,61.62971698,61.77701544
64.93460549,61.60334477,61.73627787
65.05392367,61.71322899,61.88175386
65.28205403,62.02219125,62.04191681
65.58394082,62.45079331,62.31721698
65.83061750,62.78344768,62.53602058
66.01007719,63.13550600,62.79180961
66.18021012,63.40298027,62.94693396
66.29266724,63.65330189,63.09562607
66.46001286,63.95593911,63.24924957
66.64183105,64.24346055,63.43449828
66.80199400,64.53612779,63.67506432
66.95411664,64.80874786,63.80253002
67.16605918,65.13089623,64.04899228
67.30864065,65.47716552,64.22609348
67.48488422,65.80499571,64.40533877
67.68792882,66.07986707,64.60152230
67.84830617,66.42399228,64.74281732
68.03580617,66.68846484,64.98070326
68.17056175,66.95100772,65.10323756
68.31946827,67.17238422,65.28837907
68.55596055,67.55231561,65.51050600
68.76425815,67.91327187,65.72888079
68.89301029,68.22405660,65.83469125
68.27208405,67.61063465,65.33619211
66.31335763,65.17206261,63.69736278
65.04063036,63.09916381,62.33522727
64.84852058,62.43149657,62.00954117
64.83040309,62.12392796,61.90180103
64.52315609,61.51114923,61.43696398
64.08286878,60.82129074,61.03012436
63.87478559,60.43117496,60.80874786
64.16509434,60.72662950,61.07118353
64.67860206,61.33190395,61.54631218
64.71483705,61.43653516,61.59884220
64.66777444,61.39590480,61.54813465
64.71204974,61.46312178,61.61492281
64.97941681,61.80081475,61.85677530
65.25150086,62.14215266,62.04716981
65.50182247,62.53098199,62.33651372
65.70508148,62.84809177,62.47180532
65.82418525,63.13379074,62.64922813
65.98810034,63.39762007,62.80328045
66.12510720,63.64976415,62.98681389
66.27047599,63.90319468,63.16648799
66.42388508,64.18053173,63.34712693
66.58780017,64.50611063,63.54170240
66.83865780,64.81700257,63.75332333
67.03827187,65.16370069,63.94135935
67.21633791,65.54373928,64.22448542
67.42013293,65.85688250,64.40855489
67.64365352,66.21783877,64.63786449
67.80542453,66.46923242,64.81292882
67.95047170,66.73048885,64.96076329
68.15855489,67.07086192,65.15147942
68.33554889,67.42024014,65.36042024
68.54170240,67.76768868,65.56764580
68.37521441,67.71483705,65.44489708
66.73992281,65.85677530,64.04759863
65.13539880,63.51876072,62.52990995
64.67109777,62.37843053,61.85806175
64.66091338,62.14526158,61.79256003
64.52497856,61.70722556,61.49667667
64.17635077,61.08629931,61.20143654
63.87907376,60.61942539,60.83940823
64.04159520,60.73027444,61.01179245
64.58061750,61.44039451,61.49892796
64.72019726,61.63186106,61.63850772
64.61277873,61.53151801,61.56282161
64.68910806,61.58983705,61.58233276
64.87853774,61.81828902,61.75996998
65.14311750,62.12146226,61.98016724
65.39301029,62.51693825,62.27186964
65.56582333,62.88207547,62.50321612
65.79373928,63.25321612,62.72684391
65.89043739,63.51007719,62.82847341
66.02487136,63.74120926,63.01050600
66.14944254,64.02508576,63.13164666
66.39225986,64.28355489,63.35473842
66.55553173,64.59412521,63.56346484
66.75546741,64.92527873,63.79127358
66.94489708,65.29502573,63.99421098
67.14033019,65.58522727,64.20422384
67.33072470,65.89268868,64.35581046
67.50600343,66.20304460,64.57911664
67.68428388,66.47652230,64.80906947
67.86427959,66.78344768,64.95926244
68.04309605,67.08040309,65.09819897
68.18589194,67.34734134,65.27444254
68.36942539,67.69425386,65.46269297
68.60045026,68.01382933,65.65083619
68.79952830,68.42817324,65.87071184
68.98102487,68.72609348,66.08394082
68.49442539,68.44018010,65.75836192
66.51136364,66.08919383,64.04609777
65.13389794,63.74946398,62.64804889
64.81625214,62.95175815,62.14301029
64.95240137,62.85849057,62.18932247
64.84959262,62.54556175,62.01725986
64.52969554,61.99131647,61.71044168
64.47577187,61.73563465,61.54802744
64.92088336,62.18996569,61.96719554
65.19114494,62.58265437,62.17892367
64.98574185,62.40212264,62.01361492
64.95754717,62.33190395,61.97834477
65.08286878,62.44800600,62.08994425
65.33061750,62.76393654,62.31968268
65.57011149,63.13614923,62.57354202
65.73038165,63.49474700,62.77197684
65.95143654,63.78419811,63.00761149
66.10945540,64.09015866,63.19071612
66.24828473,64.32139794,63.36063465
66.36438679,64.53955832,63.47330617
66.52176244,64.82622213,63.61117067
66.70197256,65.07975986,63.82225557
66.87178388,65.37135506,63.98198971
67.11470840,65.71355060,64.22491424
67.32054031,66.07096913,64.40158662
67.54599057,66.39118782,64.64118782
67.72888079,66.67356346,64.83994425
67.46322899,66.51597341,64.64569039
65.86953259,64.64719125,63.29641938
64.50653945,62.59980703,61.88518439
64.15394511,61.75085763,61.47598628
64.14933533,61.53870069,61.33908662
64.01672384,61.15694683,61.07375643
63.70122213,60.62896655,60.75996998
63.56657376,60.35945540,60.61803173
63.90780446,60.71290738,60.96548027
64.38239708,61.30413808,61.37017581
64.39322470,61.36470840,61.37564322
64.31507290,61.28355489,61.30092196
64.42903087,61.41466552,61.43696398
64.70154374,61.73520583,61.70626072
64.94446827,62.14987136,61.94103774
65.19339623,62.54352487,62.17474271
65.35698971,62.86578045,62.35184391
65.51747427,63.12081904,62.53977273
65.63957976,63.37092624,62.73477702
65.77090480,63.64161664,62.85859777
65.95776158,63.89922813,62.98649228
66.13121784,64.19468268,63.25900515
66.30939108,64.49849914,63.46397942
66.50117925,64.81442967,63.60752573
66.71762436,65.14258148,63.81818182
66.87800172,65.43717839,64.02808748
67.08061750,65.74163808,64.24163808
67.24045883,66.01918954,64.38003859
67.38496998,66.23745712,64.52026158
67.57847341,66.57911664,64.66166381
67.76822470,66.87585763,64.91981132
67.93471269,67.19457547,65.02690823
67.69757719,67.08801458,64.94093053
65.99528302,65.01822470,63.45304460
64.43814322,62.68750000,61.86352916
63.97834477,61.62885935,61.29138079
63.97727273,61.28966552,61.09991424
63.69757719,60.71794597,60.82086192
63.22437822,60.00439537,60.31314322
62.89579760,59.44232419,59.94768439
62.99110206,59.44843482,60.06786021
63.54931389,60.07868782,60.59026587
63.73466981,60.35559605,60.73059605
63.68685678,60.23445540,60.60924099
63.70593911,60.27540738,60.68192539
63.88765009,60.49635506,60.85591767
64.13861492,60.81142796,61.05521012
64.38464837,61.13593482,61.28173242
64.58962264,61.44361063,61.42131218
64.75000000,61.68267581,61.61234991
64.89215266,61.94811321,61.66466552
65.03709262,62.14879931,61.81410806
65.17903087,62.41616638,62.03945111
65.28580617,62.64429674,62.19489708
65.49624786,62.92849485,62.38732847
65.67345626,63.19511149,62.55060034
65.88111063,63.51232847,62.72845197
66.03076758,63.80992710,62.90212264
66.23938679,64.12403516,63.11374357
66.43278302,64.42141938,63.32386364
66.57654374,64.66316467,63.51415094
66.72212693,64.96612350,63.66016295
66.87714408,65.27015437,63.82718696
67.03741424,65.55027873,64.05671098
67.21987564,65.79127358,64.21215695
67.36674528,66.01833190,64.33501286
67.53194683,66.30124357,64.49335334
67.75160806,66.63196827,64.68599914
67.94286021,66.92699400,64.89783448
67.99324614,67.13175386,64.96923242
66.92409949,65.96462264,64.06260720
65.34766295,63.77562178,62.53183962
64.67474271,62.40823328,61.68782161
64.58286878,62.00546741,61.49603345
64.51843911,61.67710120,61.27722985
64.11824614,61.01661664,60.86524443
63.77433533,60.45336621,60.49710549
63.66230703,60.28173242,60.46076329
64.11052744,60.77562178,60.86009863
64.36063465,61.08940823,61.11470840
64.21858919,60.97888079,60.95808319
64.17495712,60.96140652,60.96762436
64.27905232,61.07686535,61.05735420
64.48874357,61.31314322,61.21708834
64.62296312,61.58822899,61.35195111
64.86074185,61.86631647,61.57622213
65.05660377,62.17066895,61.78044597
65.16091338,62.40147942,61.94886364
65.24785592,62.57418525,62.04481132
65.33662093,62.80510292,62.13915094
65.50053602,63.00396655,62.31850343
65.66916810,63.29288165,62.51993997
65.81968268,63.54716981,62.66059177
65.95207976,63.80499571,62.83072470
66.08072470,64.04877787,63.00268010
66.26629503,64.38657804,63.13100343
66.45529588,64.68771441,63.37617925
66.59401801,64.92399228,63.48188250
66.71537307,65.11503002,63.63132504
65.92506432,64.22352058,62.93492710
64.74721269,62.51286449,61.74614065
64.25139365,61.46065609,61.12939537
64.17731561,61.17002573,60.99421098
64.04834906,60.90576758,60.80413808
63.78891509,60.50225129,60.58351201
63.58115352,60.14740566,60.39225986
63.81046312,60.44446827,60.64729846
64.22094768,60.97502144,60.98295455
64.16541595,60.95658233,60.89397513
64.09948542,60.87328473,60.88829331
64.12071184,60.92795883,60.91852487
64.32086192,61.15555317,61.16477273
64.51618782,61.46987564,61.24817753
64.71430103,61.72695111,61.48016724
64.91187822,62.05746141,61.65351630
65.03409091,62.29652659,61.84069468
65.15512436,62.51768868,61.93171098
65.22491424,62.67431389,62.03644940
65.37639365,62.87060463,62.20400943
65.51340051,63.12424957,62.38346913
65.69929245,63.38861492,62.54084477
65.83104631,63.64215266,62.72126930
65.96708834,63.88925815,62.85173671
66.17324185,64.14172384,63.07933105
66.34337479,64.45894082,63.19414666
66.48134648,64.72084048,63.35270154
66.57600772,64.85881218,63.49474700
66.06743139,64.36117067,63.02347770
64.78762864,62.60945540,61.85666810
64.02980274,61.17538593,60.92388508
63.80145798,60.65630360,60.64751286
63.59316038,60.26811750,60.42527873
63.19907804,59.69907804,60.05521012
62.84648370,59.17838765,59.66745283
62.75096484,59.00418096,59.61695969
63.13539880,59.47373499,60.02347770
63.45733276,59.93632075,60.34240995
63.38957976,59.88121784,60.24206690
63.38636364,59.87628645,60.24292453
63.54288165,60.07697256,60.39215266
63.73531304,60.35430961,60.60945540
63.94725557,60.64686964,60.84090909
64.13164666,60.91831046,60.89987136
64.24689108,61.20765437,61.08436964
64.46172813,61.43621355,61.29899228
64.60881218,61.64290309,61.44243139
64.72437822,61.88282590,61.59273156
64.86578045,62.12971698,61.70111492
64.99549743,62.36878216,61.87071184
65.15394511,62.63464837,62.08447684
65.33962264,62.90844768,62.30188679
65.48284734,63.15823328,62.40008576
65.67828045,63.42763722,62.53762864
65.79545455,63.65673242,62.69554031
65.93803602,63.87349914,62.86642367
66.10120069,64.14322470,63.08276158
66.23241852,64.38507719,63.24807033
66.38957976,64.66295026,63.37049743
66.49592624,64.88893654,63.49035163
66.63346913,65.08801458,63.69543310
66.79942110,65.33243997,63.78998714
67.00385935,65.60849057,63.99807033
67.10816895,65.75353774,64.12253431
67.20175815,65.91552316,64.16981132
66.71773156,65.40662521,63.72630789
65.06164237,63.31142796,62.21322899
64.07665094,61.45765437,61.07386364
63.80124357,60.78023156,60.69318182
63.60077187,60.36492281,60.49742710
63.16284305,59.68814322,60.04256003
62.65265866,58.92195540,59.57911664
62.41820326,58.50932676,59.31528731
62.64654803,58.72051887,59.56764580
63.15598199,59.39097341,60.03312607
63.20936964,59.56871784,60.04877787
63.15169383,59.49539022,59.98188250
63.26232847,59.58865780,60.07900943
63.45701115,59.86481561,60.32686535
63.71816038,60.16541595,60.52133362
63.89311750,60.44843482,60.67806604
64.05767581,60.68524871,60.85098628
64.24324614,60.94779160,61.02262007
64.38400515,61.18481990,61.16702401
64.51522298,61.37542882,61.26715266
64.71901801,61.61846055,61.43364065
64.90598199,61.88561321,61.58672813
65.07386364,62.14997856,61.76018439
65.24035163,62.42367067,61.97319897
65.41123499,62.73048885,62.12542882
65.62199828,63.00085763,62.32611492
65.75353774,63.22909520,62.47609348
65.87682247,63.50482419,62.58458405
66.04180961,63.75300172,62.79845626
66.15994854,63.96848199,62.91037736
66.35141509,64.25407376,63.14815609
66.60666810,64.60752573,63.39847770
66.78494854,64.89987136,63.56110635
66.86095626,65.10345197,63.68299743
66.20540309,64.37542882,63.07139794
64.84165952,62.38775729,61.72930961
64.02133362,60.95551029,60.83308319
63.80424528,60.46097770,60.56646655
63.63443396,60.12714408,60.40115780
63.29813465,59.53548456,60.01640223
62.97545026,59.02669383,59.67828045
62.85613208,58.86427959,59.67152659
63.37628645,59.40694683,60.12114065
63.76951115,59.98370497,60.41981132
63.73327616,59.99399657,60.39686964
63.67302744,59.98499142,60.34969983
63.90984134,60.21301458,60.59294597
64.14815609,60.51179245,60.81475129
64.36460120,60.82536449,60.98574185
64.59551887,61.17677959,61.23488422
64.86320755,61.49571184,61.39343911
65.06582333,61.79352487,61.56582333
65.19554031,62.03945111,61.71998285
65.34037307,62.26683105,61.89140223
65.51704545,62.54277444,62.03870069
65.74099485,62.83662093,62.21719554
65.95358062,63.12639365,62.41820326
66.11695969,63.48209691,62.65062178
66.33211835,63.76608062,62.85527444
66.46087050,64.04363208,62.96087050
66.61942539,64.31196398,63.19875643
66.80724700,64.59991424,63.34391081
66.98917238,64.88840051,63.57343482
67.14922813,65.20540309,63.69103774
67.25611063,65.39890652,63.82879503
66.56496569,64.65737564,63.18460549
65.38357633,62.90608919,62.01307890
64.86706690,61.85055746,61.37349914
64.80563894,61.60924099,61.24153087
64.70636792,61.44436106,61.18235420
64.45604631,61.06346484,60.93353345
64.21762436,60.66380789,60.67174099
64.39504717,60.85152230,60.86202830
64.83876501,61.45218696,61.31946827
64.88990137,61.54448971,61.33008148
64.81839623,61.44789880,61.20283019
64.87660806,61.52090480,61.28698542
65.06978988,61.79363208,61.53784305
65.27915952,62.06389365,61.65673242
65.47523585,62.33436964,61.88711407
65.71001286,62.61803173,62.05713979
65.83833619,62.91788165,62.22255575
65.95936964,63.13304031,62.36438679
66.07858062,63.31400086,62.50160806
66.18567753,63.49549743,62.59455403
66.34841338,63.75514580,62.77765866
66.55177959,64.01704545,62.95422384
66.67935249,64.27647942,63.15233705
66.77379931,64.54545455,63.24120926
66.91766724,64.77722985,63.37864494
67.10377358,65.01715266,63.56174957
67.28870069,65.31207118,63.76254288
67.32461407,65.48456261,63.81260720
67.34487564,65.56442967,63.85195111
66.47598628,64.52165523,63.01801029
65.38957976,62.76736707,61.92967410
64.89676244,61.82729417,61.33222556
64.76500858,61.48520583,61.17174099
64.53012436,61.12960978,60.88218268
64.10066467,60.53569897,60.51533019
63.82397084,60.09026587,60.27294168
63.88025300,60.15190823,60.37274871
64.37692967,60.71933962,60.90287307
64.52004717,60.96494425,60.98488422
64.39729846,60.88464837,60.86470840
64.45368782,60.90415952,60.93074614
64.61277873,61.14108062,61.05853345
64.81485849,61.43471269,61.29234563
65.05360206,61.75085763,61.49849914
65.23906518,61.99292453,61.67817324
65.40737564,62.22105489,61.80553173
65.53762864,62.45358062,61.94243139
65.67302744,62.70840480,62.10377358
65.80585334,62.90962693,62.23123928
65.91434391,63.12639365,62.39804889
66.10463122,63.39150943,62.57311321
66.21076329,63.66659520,62.69575472
66.38689966,63.91756003,62.89676244
66.50289451,64.17978130,63.02862350
66.65555317,64.42656518,63.18021012
66.75300172,64.63786449,63.31067753
66.92431389,64.91209262,63.48327616
67.08790738,65.17645798,63.65244425
67.18289022,65.42388508,63.75600343
67.06314322,65.36803173,63.67806604
65.87853774,63.88947256,62.63475557
64.77905232,62.04213122,61.46301458
64.36192110,61.19639794,60.93460549
64.21933962,60.92838765,60.81818182
63.88111063,60.37382075,60.47823756
63.42613636,59.76683105,60.05242281
63.13046741,59.25954117,59.80049314
63.27626501,59.39611921,59.91327187
63.82193396,60.10881218,60.38668525
63.95711835,60.39879931,60.51801029
63.84959262,60.28226844,60.47309177
63.92227702,60.35881218,60.51254288
64.13904374,60.63132504,60.70165094
64.36717410,60.95379503,60.93857204
64.57086192,61.24260292,61.13861492
64.77240566,61.55092196,61.34380360
64.94275300,61.79674099,61.46033448
65.13432676,62.08951544,61.67720840
65.26425815,62.31314322,61.83115352
65.38529160,62.54716981,61.93181818
65.55370926,62.82643654,62.16155660
65.75964837,63.09283877,62.35934820
65.92431389,63.38293310,62.50428816
66.09401801,63.62982419,62.65426672
66.22845197,63.91777444,62.86824614
66.34937822,64.18192539,63.00911235
66.50879074,64.42088336,63.19596913
66.65448113,64.66155660,63.37553602
66.76200686,64.88614923,63.47341338
66.92120497,65.16884648,63.59358919
67.14290309,65.51340051,63.86288593
67.34637650,65.82815180,64.05242281
67.46998285,66.04545455,64.17581475
66.74935678,65.31732419,63.54502573
65.19811321,63.15072899,62.15866209
64.44789880,61.67710120,61.14922813
64.26608062,61.22512864,60.96419383
64.12414237,60.90287307,60.79588336
63.67281304,60.28623499,60.35806175
63.23949400,59.65265866,59.92967410
63.10002144,59.40105060,59.83908662
63.56024871,59.90330189,60.22298456
64.03687822,60.52894511,60.65844768
63.99871355,60.54759863,60.64815609
63.97641509,60.49957118,60.63014580
64.11685249,60.67860206,60.76650943
64.34712693,60.97169811,60.98563465
64.58940823,61.29331046,61.20368782
64.79352487,61.63765009,61.37371355
65.04084477,61.95615352,61.65619640
65.19779160,62.21730274,61.76876072
65.31421527,62.45186535,61.88175386
65.49078045,62.67367067,62.07397084
65.59841338,62.92045455,62.18567753
65.80317324,63.23070326,62.42753002
66.00289451,63.49581904,62.59551887
66.11342196,63.74721269,62.73606346
66.24731990,64.00868353,62.90405232
66.42710120,64.27401372,63.11492281
66.64429674,64.62885935,63.31818182
66.78591338,64.89676244,63.52111921
66.88293310,65.12864494,63.64879931
66.21526587,64.47298456,63.00214408
64.87768010,62.48123928,61.71022727
64.16005575,61.14869211,60.89954974
64.02690823,60.82236278,60.70122213
63.96054889,60.65158662,60.64408233
63.64804889,60.22480703,60.32150515
63.37993139,59.82933105,60.10077187
63.60055746,60.03430532,60.34669811
64.16959691,60.75150086,60.77594340
64.22030446,60.87039022,60.82772298
64.13143225,60.74078045,60.78966552
64.17677959,60.79920669,60.78548456
64.39108062,61.07096913,61.01865352
64.65941252,61.40019297,61.29706261
64.90426672,61.72973842,61.52476415
65.15373070,62.08469125,61.70926244
65.35720412,62.41359348,61.93524871
65.47930961,62.61117067,62.01189966
65.56635935,62.80199400,62.14633362
65.66252144,63.02208405,62.28130360
65.84969983,63.29824185,62.48091767
66.03773585,63.60463122,62.62092624
66.21237136,63.91005575,62.87403516
66.36963979,64.20197256,63.03559177
66.57054031,64.48241852,63.20647513
66.72705832,64.75814751,63.39858491
66.86159949,64.99431818,63.54256003
67.00868353,65.25675386,63.68213979
67.12650086,65.50921955,63.85184391
67.30306604,65.75653945,64.00589623
67.49678388,66.06646655,64.20990566
67.68353345,66.29545455,64.36749571
67.49335334,66.19339623,64.23284734
65.98938679,64.40512436,62.93021012
64.67645798,62.21633791,61.53537736
64.26597341,61.31871784,61.03248285
64.25546741,61.11910377,60.92077616
63.98391938,60.68910806,60.62971698
63.55939108,60.01243568,60.22598628
63.30649657,59.60388079,59.97009005
63.48488422,59.81507290,60.20915523
64.09723413,60.53612779,60.74882075
64.24903516,60.70722556,60.87339194
64.14901372,60.60055746,60.68932247
64.24174528,60.73295455,60.83265437
64.48048885,61.04009434,61.02122642
64.77873070,61.41530875,61.29524014
65.03055317,61.77840909,61.56743139
65.25310892,62.07279160,61.75418096
65.44972127,62.36288593,61.92913808
65.61117067,62.61009863,62.08158233
65.83780017,62.90319468,62.25396655
65.97963122,63.14708405,62.45840480
66.18406947,63.41648799,62.61074185
66.35838336,63.73102487,62.81250000
66.59133791,64.07740137,63.02358491
66.74935678,64.38293310,63.20411664
66.92720840,64.67506432,63.39075901
67.11267153,64.96730274,63.56743139
67.33983705,65.30188679,63.82054031
67.55188679,65.63872213,64.03837907
67.69135935,65.92013293,64.23295455
67.55038593,65.88786449,64.08855060
66.35806175,64.37521441,62.99292453
65.29073756,62.48906518,61.77465695
64.89912093,61.69693396,61.32300600
64.82675815,61.50621784,61.24399657
64.62060463,61.14504717,60.99388937
64.23820755,60.50536021,60.62521441
64.01275729,60.11503002,60.38111063
64.22770154,60.30167238,60.59819897
64.75911235,61.02905232,61.08844340
64.98284734,61.33040309,61.31818182
64.92216981,61.28709262,61.24463979
64.99560463,61.38582762,61.32150515
65.25525300,61.70915523,61.53955832
65.52272727,62.08576329,61.78173242
65.79073756,62.42967410,62.00450257
66.01072041,62.76415094,62.19339623
66.24249571,63.07783019,62.40801887
66.41777444,63.33351201,62.58822899
66.58126072,63.60227273,62.75192967
66.76039880,63.88454117,62.91670240
66.95068611,64.19361063,63.16702401
67.12960978,64.51297170,63.31593053
67.32858062,64.81164237,63.56700257
67.48831475,65.11717410,63.69950686
67.66959691,65.41230703,63.88421955
67.87242710,65.73906518,64.10162950
68.01157804,66.01608062,64.28816467
68.16327187,66.22159091,64.40190823
68.33211835,66.52958834,64.62178388
68.51243568,66.86599485,64.78752144
68.69929245,67.19886364,64.98531304
68.81603774,67.41638079,65.09348199
67.95411664,66.42774443,64.33469125
66.62317753,64.36009863,62.98552744
66.06035592,63.11224271,62.23810034
65.97802316,62.83715695,62.16198542
65.82697256,62.55853345,61.96698113
65.42999571,61.99324614,61.57879503
65.04824185,61.40780446,61.21569468
64.98606346,61.21719554,61.18096055
65.39386792,61.76457976,61.53216123
65.70304460,62.21076329,61.93181818
65.66873928,62.17302744,61.83833619
65.62285592,62.11256432,61.82761578
65.75407376,62.26993997,61.92753002
65.96312178,62.56325043,62.06882504
66.18996569,62.90415952,62.31839623
66.42720840,63.20593911,62.48810034
66.60945540,63.51168525,62.68985849
66.80713979,63.78398370,62.88304031
66.93074614,63.99313894,62.99742710
67.03280446,64.22041166,63.15137221
67.19800600,64.44436106,63.28484134
67.35956261,64.72405660,63.48992281
67.50750429,65.02294168,63.65651801
67.62081904,65.27240566,63.81550172
67.75418096,65.53591338,63.99003002
67.92645798,65.80874786,64.16509434
68.05338765,66.12521441,64.29674099
68.24024443,66.41305746,64.49088765
68.37146226,66.67034734,64.64247427
68.12414237,66.51179245,64.46612350
66.83576329,64.76307890,63.19511149
65.83822899,62.95400943,62.13968696
65.59123070,62.38925815,61.79084477
65.56132075,62.23842196,61.81646655
65.31057033,61.83844340,61.52840909
64.93246141,61.34905660,61.21933962
64.83083190,61.15373070,61.13100343
65.24903516,61.65791166,61.52519297
65.46612350,62.06496569,61.73563465
65.31110635,61.90137221,61.58597770
65.27122642,61.86470840,61.59669811
65.37843053,61.96290738,61.67195540
65.61610206,62.31485849,61.91305746
65.85420240,62.64086621,62.08812178
66.06346484,62.89172384,62.28237564
66.26683105,63.22973842,62.46472985
66.38111063,63.48081046,62.68364065
66.47630789,63.67184820,62.74581904
66.58704974,63.86492281,62.86299314
66.72973842,64.07879503,63.03784305
66.87714408,64.35098628,63.20025729
67.01061321,64.66605918,63.43021012
67.19521870,64.92806604,63.53076758
67.33436964,65.18835763,63.70315180
67.43117496,65.40480274,63.85956261
67.60559605,65.71301458,64.02069039
67.75975557,66.00096484,64.20079331
67.80188679,66.16337907,64.32804460
67.13014580,65.54566895,63.76007719
65.75889794,63.48981561,62.46237136
64.93503431,61.90673242,61.38486278
64.74281732,61.43235420,61.21987564
64.64997856,61.25160806,61.10452401
64.33018868,60.79116638,60.79223842
63.97888079,60.26897513,60.41455832
63.89397513,60.14247427,60.44800600
64.34980703,60.67806604,60.81614494
64.60623928,61.05585334,61.10152230
64.50771870,60.97963122,61.00879074
64.44586192,60.95765437,60.93642796
64.61653087,61.13389794,61.12746569
64.89386792,61.49378216,61.36213551
65.16134220,61.88411235,61.61867496
65.39997856,62.18621355,61.86524443
65.57772298,62.49924957,62.03998714
65.69210978,62.73799314,62.13186106
65.86202830,62.97523585,62.31764580
65.99796312,63.23488422,62.44093053
66.19168096,63.51029160,62.63893654
66.36331475,63.79234563,62.86867496
66.51725986,64.05756861,63.06292882
66.67431389,64.32418525,63.18867925
66.84691252,64.64429674,63.38550600
67.01275729,64.92120497,63.58780017
67.13421955,65.21204974,63.65458834
67.33629931,65.48445540,63.93149657
67.53323328,65.81539451,64.03494854
67.68203259,66.11663808,64.30445969
67.54234563,66.01404374,64.12896655
66.03001715,64.20776158,62.87221269
64.71033448,62.02015437,61.46462264
64.33051029,61.09509005,60.90126501
64.24764151,60.91702401,60.78666381
63.99463979,60.53602058,60.54266724
63.55274443,59.87371355,60.11149228
63.27015437,59.42710120,59.90823328
63.40298027,59.52262007,60.02690823
63.94361063,60.22813036,60.55381647
64.16144940,60.56089194,60.74099485
64.10098628,60.50235849,60.67817324
64.13979417,60.56839623,60.68053173
64.35709691,60.84509005,60.92978130
64.63979417,61.21633791,61.21676672
64.92452830,61.60870497,61.45754717
65.17302744,61.97277015,61.62778731
65.34037307,62.20915523,61.81400086
65.51318611,62.46880360,61.97223413
65.71087050,62.74260292,62.18857204
65.84541166,63.01157804,62.31067753
66.04738422,63.31603774,62.56067753
66.21151372,63.59230274,62.69521870
66.37553602,63.92141938,62.94993568
66.53805746,64.23338336,63.16434391
66.74571184,64.51822470,63.34455403
66.90941252,64.81614494,63.42763722
67.05681818,65.10034305,63.64343911
67.29148799,65.50375214,63.87382075
67.49946398,65.80992710,64.03998714
67.48477702,65.91273585,64.13121784
66.22587907,64.49410377,63.03805746
64.74506861,62.19789880,61.52680103
64.17109777,60.99528302,60.82611492
64.11738851,60.75825472,60.74967839
63.95658233,60.48231132,60.58372642
63.55370926,59.90255146,60.18321184
63.21376501,59.38379074,59.87414237
63.33919383,59.43524871,59.95283019
63.84616209,60.12039022,60.46472985
64.20443825,60.59123070,60.79641938
64.13636364,60.56646655,60.73670669
64.19210978,60.58726415,60.77487136
64.39665523,60.86149228,60.85398799
64.71751715,61.23745712,61.15555317
64.99871355,61.67109777,61.48692110
65.27026158,62.02133362,61.71515866
65.48681389,62.31635935,61.94371784
65.66959691,62.65458834,62.13915094
65.84498285,62.94746998,62.28987993
66.01457976,63.22105489,62.43696398
66.19178816,63.51189966,62.67549314
66.37189108,63.82836621,62.81485849
66.59455403,64.17045455,63.11599485
66.76254288,64.52798027,63.33694254
66.95754717,64.86363636,63.51865352
67.12918096,65.13111063,63.69543310
67.28484134,65.43685678,63.86138508
67.43717839,65.72448542,64.07204117
67.66552316,66.09133791,64.21633791
67.86234991,66.43546312,64.51329331
68.06721698,66.76575901,64.65748285
67.70497427,66.44575472,64.39065180
65.99710549,64.30177959,62.92870926
64.84058748,62.35516724,61.64633362
64.61846055,61.69264580,61.23381218
64.64129503,61.61149228,61.22577187
64.44071612,61.28398370,61.01747427
64.07129074,60.76168525,60.67249142
63.93878645,60.49260292,60.54363208
64.37564322,61.00707547,60.90823328
64.74217410,61.50482419,61.32600772
64.68203259,61.49914237,61.24356775
64.64418954,61.44478988,61.24174528
64.74131647,61.55478130,61.29599057
64.99517581,61.88261149,61.49967839
65.22855918,62.25042882,61.71505146
65.50032161,62.61910377,62.03226844
65.69929245,62.98188250,62.24646226
65.87960978,63.25718268,62.38625643
66.00793310,63.47770154,62.55724700
66.09165952,63.67956690,62.67356346
66.22555746,63.95711835,62.81560892
66.39837050,64.26286449,63.00278731
66.60248714,64.58940823,63.27787307
66.81657376,64.89140223,63.43385506
66.94714837,65.16863208,63.62918096
67.15662521,65.52111921,63.79599057
67.38261149,65.87167667,64.08308319
67.57750858,66.18106775,64.23874357
67.63003859,66.35195111,64.34852058
66.70926244,65.42945969,63.55960549
65.08265437,63.15062178,62.01854631
64.37392796,61.72770154,61.17688679
64.32900943,61.37875214,61.00761149
64.30949828,61.29277444,61.00996998
64.03762864,60.87467839,60.68792882
63.79180961,60.43417667,60.45947684
63.88550600,60.54545455,60.53773585
64.43578473,61.20100772,61.02733705
64.54620497,61.35516724,61.12896655
64.45283019,61.24013722,61.04245283
64.45015009,61.25739708,61.01640223
64.66788165,61.54073756,61.29781304
64.96472985,61.94071612,61.53955832
65.19736278,62.26833190,61.74774871
65.37875214,62.58072470,61.92763722
65.54706261,62.83565609,62.12617925
65.67431389,63.12371355,62.27379931
65.78762864,63.35902659,62.36095626
65.95025729,63.56089194,62.57161235
66.08790738,63.85077187,62.74313894
66.33662093,64.18760720,62.98177530
66.52304889,64.48574185,63.17549314
66.69736278,64.78269726,63.35430961
66.84916381,65.10002144,63.52840909
67.04759863,65.44725557,63.74013722
67.25793310,65.77637221,63.95604631
67.36653087,66.01318611,64.10216552
66.61084906,65.20561750,63.42710120
64.97116209,62.94950686,61.84594768
