R,G,B
37.37424957,90.68599914,54.09766295
37.49378216,90.62328473,54.20840480
37.48070326,90.62500000,54.27079760
37.47920240,90.58147513,54.23713551
37.50943396,90.57054031,54.26929674
37.55403087,90.57675815,54.12714408
37.52980274,90.53902230,54.17667238
37.57654374,90.55102916,54.18117496
37.61524443,90.55992710,54.30456690
37.64365352,90.59777015,54.28795026
37.64686964,90.61599485,54.29030875
37.64536878,90.65094340,54.25428816
37.64826329,90.68364065,54.26961835
37.64215266,90.69746998,54.26672384
37.66648799,90.70551029,54.30992710
37.64976415,90.73531304,54.30992710
37.64258148,90.77937393,54.30574614
37.62789451,90.80542453,54.27948113
37.62617925,90.84058748,54.31507290
37.66895369,90.91745283,54.38121784
37.66284305,90.97995283,54.45422384
37.64879931,91.03666381,54.42388508
37.62918096,91.05006432,54.44500429
37.46387221,90.95615352,54.31978988
37.37832333,90.80070755,54.21387221
37.41831046,90.77873070,54.22105489
37.47737993,90.75675386,54.24003002
37.51565180,90.75257290,54.23027444
37.16756003,90.10795455,53.62317753
37.18074614,90.08211835,53.62542882
37.19275300,90.07718696,53.63057461
37.18696398,90.04373928,53.59862779
37.19403945,90.05081475,53.60420240
37.21708834,90.03955832,53.59530446
37.20368782,90.02015437,53.62006861
37.23156089,90.04888508,53.61256432
37.26157804,90.06946827,53.64601201
37.28183962,90.08587050,53.66798885
37.27937393,90.12757290,53.65373070
37.28473413,90.15501715,53.64000858
37.28334048,90.15040738,53.67656518
37.25578902,90.15780446,53.67302744
37.29331046,90.24099485,53.74206690
37.28226844,90.28891509,53.74153087
37.26297170,90.32472127,53.76254288
37.25343053,90.35098628,53.74378216
37.30231561,90.42281304,53.79588336
37.29674099,90.46805317,53.79545455
37.28880789,90.49807033,53.82654374
37.30949828,90.53934391,53.83865780
37.27358491,90.61234991,53.82632933
37.26007719,90.64644082,53.87328473
37.19918525,90.62264151,53.85205832
37.05713979,90.46923242,53.64590480
37.02637221,90.40566038,53.64193825
37.05660377,90.41295026,53.69082333
37.09819897,90.41809605,53.65587479
37.12039022,90.45872642,53.72373499
37.11331475,90.44157376,53.72695111
37.12307033,90.44275300,53.74335334
37.15105060,90.43449828,53.73252573
37.12521441,90.42602916,53.70240137
37.09026587,90.39279588,53.67667238
37.10205832,90.39515437,53.67259863
37.12671527,90.41402230,53.70883362
37.13475557,90.44028731,53.73402659
37.17163379,90.45808319,53.70936964
37.16466552,90.47512864,53.70518868
37.15126501,90.52026158,53.72094768
37.15737564,90.53451973,53.75321612
37.17388508,90.59927101,53.78602058
37.16788165,90.62778731,53.82375643
37.16563036,90.66734563,53.83672813
37.16402230,90.68782161,53.83597770
37.14601201,90.68160377,53.79524014
37.15083619,90.72737993,53.86095626
37.14869211,90.73316895,53.84616209
37.13979417,90.78301887,53.85956261
37.14408233,90.87242710,53.92367067
37.13593482,90.89558319,53.93610635
37.01318611,90.79856346,53.84959262
36.89033019,90.69736278,53.73960120
36.90072899,90.64665523,53.74764151
36.95786878,90.63904374,53.70551029
36.97920240,90.65844768,53.72941681
37.00021441,90.64408233,53.75385935
36.99667667,90.63647084,53.75117925
37.02412093,90.62382075,53.72759434
37.02401372,90.62371355,53.75450257
37.00954117,90.59530446,53.74603345
36.98177530,90.58940823,53.73692110
36.98306175,90.58619211,53.71440823
37.02454974,90.60195111,53.75932676
37.04277444,90.65169383,53.74946398
37.07204117,90.68181818,53.75514580
37.08286878,90.71215695,53.79341767
37.07472127,90.72051887,53.82836621
37.08436964,90.75589623,53.84058748
37.08243997,90.76961835,53.83565609
37.07386364,90.81485849,53.85045026
37.04213122,90.82836621,53.81057033
37.05499571,90.84701973,53.82429245
37.06174957,90.88657804,53.85806175
37.00192967,90.93181818,53.79373928
37.02283448,90.98874357,53.86031304
37.04020154,91.03419811,53.90426672
37.02840909,91.06743139,53.91691681
37.03784305,91.14376072,53.90555317
37.01404374,91.15641081,53.94586192
36.92259863,91.08233276,53.88057461
36.76372213,90.96740995,53.72662950
36.74496141,90.88925815,53.74324614
36.79684820,90.89676244,53.79620497
36.81475129,90.87071184,53.74978559
36.81485849,90.84466123,53.72780875
36.84712693,90.81196398,53.72705832
36.84476844,90.75728988,53.70411664
36.88561321,90.73724271,53.69543310
36.90748285,90.74581904,53.76833190
36.92356346,90.72073328,53.74045883
36.93546312,90.70861921,53.73391938
36.94907804,90.69993568,53.74839194
36.99549743,90.70347341,53.73542024
36.99528302,90.71848199,53.77015437
36.98123928,90.75310892,53.77262007
37.02894511,90.76565180,53.79352487
37.04041595,90.78462693,53.80971269
37.05992710,90.81550172,53.82900943
37.03398370,90.83565609,53.81507290
37.03087479,90.84777015,53.85398799
37.02304889,90.87339194,53.88304031
37.01918954,90.90576758,53.86996141
36.99517581,90.96301458,53.84744854
36.99528302,90.98327616,53.87778731
36.98370497,91.00900515,53.90201544
36.98595626,91.03741424,53.91241424
36.97909520,91.09123070,53.88046741
36.98799314,91.12457118,53.88915094
36.98788593,91.14954974,53.92056175
36.96676672,91.21933962,53.95776158
36.98381218,91.27326329,53.96944683
36.98006003,91.30017153,54.04781304
36.87285592,91.25364494,53.94939966
36.71590909,91.08747856,53.79824185
36.66102058,91.00900515,53.76329331
36.69157376,90.99346055,53.80306604
36.76297170,91.00246569,53.85688250
36.76608062,90.99978559,53.83297599
36.77594340,90.94532590,53.82804460
36.76072041,90.89536878,53.78044597
36.82675815,90.87607204,53.82547170
36.84487564,90.85774014,53.79427530
36.85195111,90.85109348,53.78762864
36.85956261,90.85098628,53.76801029
36.88604202,90.84058748,53.80606775
36.87231990,90.83051029,53.75632504
36.93696398,90.84605489,53.80789022
36.93792882,90.86224271,53.81078473
36.94822041,90.87768010,53.81292882
36.95475986,90.89322470,53.82032590
36.95218696,90.92131218,53.83190395
36.95207976,90.93471269,53.83865780
36.93803602,90.96740995,53.84669811
36.94575472,90.98456261,53.86170669
36.96665952,91.01511578,53.95036449
36.94500429,91.04920669,53.90576758
36.96044168,91.09466123,53.90919811
36.96623070,91.12403516,53.92184820
36.96440823,91.16466552,53.94982847
36.97159091,91.20636792,53.96987564
36.97727273,91.24056604,53.97834477
36.96505146,91.30017153,53.96140652
36.93096055,91.33490566,53.96483705
36.93985849,91.34659091,54.01961835
36.93439108,91.41595197,54.01672384
36.93246141,91.44875643,54.03666381
36.91091338,91.48681389,54.04470412
36.80606775,91.39997856,53.96816038
36.62821612,91.24378216,53.84176672
36.61878216,91.18932247,53.80767581
36.64279588,91.17066895,53.86385077
36.69018010,91.18096055,53.85463122
36.68942967,91.16777444,53.88196827
36.70047170,91.11149228,53.77572899
36.69832762,91.08983705,53.84734134
36.73734991,91.09262436,53.86299314
36.75986278,91.07697256,53.79609777
36.75889794,91.06207118,53.82364923
36.75718268,91.04599057,53.83887221
36.78891509,91.05177959,53.86996141
36.83769297,91.07783019,53.87307033
36.84240995,91.09176672,53.88271870
36.87124786,91.11567324,53.84487564
36.85527444,91.13014580,53.89343911
36.86363636,91.14515437,53.87328473
36.85409520,91.15662521,53.88689966
36.86599485,91.19811321,53.93546312
36.89108062,91.21805317,53.94961407
36.87714408,91.25235849,53.93138937
36.85795455,91.26511578,53.95293739
36.87757290,91.31818182,53.97577187
36.85838336,91.33329760,53.98274014
36.89483276,91.39011578,53.99860635
36.89054460,91.45272298,54.00439537
36.90726844,91.47287736,54.03055317
36.86728130,91.51500858,54.02894511
36.86427959,91.56067753,54.06239280
36.87757290,91.58404803,54.09798456
36.85173671,91.63604202,54.10023585
36.83608491,91.67442110,54.09444683
36.83147513,91.70111492,54.11942539
36.80767581,91.72084048,54.10784734
36.61352916,91.59208834,53.98788593
36.56099914,91.47888079,53.92099057
36.56142796,91.47695111,53.90083619
36.62500000,91.48391938,53.93867925
36.65780446,91.48413379,53.98992281
36.64301029,91.46655232,53.91209262
36.66187822,91.42645798,53.92002573
36.67334906,91.43964408,53.96194254
36.68396226,91.42753002,53.96376501
36.67753002,91.41037736,53.93481990
36.67924528,91.39879931,53.92581475
36.69093053,91.37617925,53.96880360
36.71258576,91.38539880,53.94800600
36.75310892,91.42484991,53.93878645
36.75192967,91.42817324,53.95540309
36.75150086,91.46247856,53.97577187
36.74592624,91.46976844,54.02830189
36.74721269,91.48670669,54.00407376
36.76768868,91.50439537,54.01918954
36.78269726,91.51811750,54.02433533
36.75568182,91.55478130,54.06099914
36.78580617,91.62735849,54.08233276
36.79609777,91.64965695,54.05617496
36.76918954,91.68171098,54.07322041
36.78451973,91.70197256,54.12285592
36.75889794,91.75568182,54.15641081
36.77572899,91.80510292,54.18782161
36.75664666,91.84691252,54.13850772
36.77208405,91.88186106,54.12156947
36.77497856,91.90169383,54.16477273
36.77272727,91.92624357,54.20926244
36.75257290,91.96655232,54.21140652
36.67978130,91.92763722,54.17570755
36.49035163,91.76758148,53.99185249
36.45336621,91.72437822,53.97780875
36.48820755,91.73606346,54.02101201
36.53462693,91.73038165,54.03677101
36.58565609,91.74496141,54.07515009
36.59766295,91.76125643,54.03955832
36.61599485,91.75964837,54.03237564
36.61342196,91.75085763,54.03108919
36.61138508,91.73316895,54.00932676
36.60130789,91.69864923,54.00739708
36.60677530,91.66295026,54.01522298
36.62457118,91.65330189,54.03816467
36.64869211,91.67570755,54.07364923
36.65812607,91.71065609,54.07021870
36.67828045,91.73166810,54.09551887
36.69436106,91.75761149,54.10538165
36.70743997,91.77540738,54.06335763
36.68299743,91.78226844,54.13990137
36.70143654,91.80199400,54.08672813
36.70443825,91.81507290,54.10195111
36.68953688,91.84133791,54.14150943
36.70004288,91.86792453,54.13636364
36.69811321,91.88829331,54.14065180
36.69939966,91.91895369,54.15351630
36.68514151,91.94371784,54.15683962
36.70325901,91.98670669,54.19318182
36.70561750,92.01929674,54.21247856
36.70593911,92.03033877,54.26104202
36.68567753,92.09090909,54.23327616
36.67956690,92.12060463,54.26125643
36.65619640,92.13239708,54.22823756
36.45733276,91.95197256,54.09069468
36.35913379,91.84562607,54.00171527
36.38271870,91.82504288,54.00900515
36.43503431,91.82289880,54.05724700
36.46837479,91.82064751,54.04684820
36.50182247,91.81593053,54.04298885
36.49689108,91.79170240,53.99238851
36.52122642,91.77915952,54.02530017
36.52626501,91.76340051,54.02669383
36.53108919,91.74892796,54.04588336
36.54716981,91.73198971,54.05874786
36.56496569,91.73820755,54.05767581
36.59101630,91.73445540,54.06464408
36.60838336,91.75139365,54.05006432
36.61545883,91.75804031,54.07836621
36.62500000,91.74935678,54.08876501
36.62500000,91.75964837,54.10613208
36.66144940,91.76779588,54.09326758
36.64140223,91.77798027,54.08436964
36.64236707,91.76393654,54.07289880
36.66069897,91.79899228,54.10774014
36.67163379,91.84015866,54.11374357
36.68374786,91.87457118,54.16659520
36.69114494,91.90233705,54.16670240
36.68642796,91.93642796,54.18599914
36.67024014,91.97834477,54.19446827
36.68449828,91.99967839,54.20229417
36.69800600,92.04341767,54.21344340
36.68814322,92.07257719,54.23531304
36.68106775,92.10859777,54.26189966
36.66831046,92.12928816,54.23863636
36.66863208,92.19822041,54.22480703
36.64150943,92.20197256,54.22727273
36.47019726,92.07740137,54.07354202
36.25407376,91.93203259,54.00707547
36.32225557,91.87843053,54.00343053
36.40673242,91.85248714,54.02315609
36.43707118,91.87317753,54.04813465
36.45958405,91.85002144,54.04491852
36.45551029,91.81978988,54.02690823
36.49163808,91.78108919,54.03837907
36.51039880,91.76811750,54.03291166
36.55199400,91.76490137,54.05370926
36.56539451,91.74185249,54.05102916
36.54792024,91.74067324,54.04534734
36.57922384,91.74003002,54.04663379
36.59380360,91.73659949,54.04792024
36.60720412,91.74271012,54.06174957
36.65222985,91.76822470,54.08683533
36.65651801,91.78966552,54.06968268
36.65855489,91.77154803,54.12274871
36.65373070,91.80424528,54.08855060
36.66530875,91.82975986,54.08790738
36.68353345,91.85120069,54.12971698
36.68471269,91.86245712,54.13175386
36.68331904,91.86234991,54.14236707
36.69243139,91.87617925,54.16327187
36.67099057,91.91906089,54.15190823
36.67442110,91.95486707,54.13003859
36.68867925,91.98649228,54.15351630
36.67924528,92.02401372,54.21419383
36.68492710,92.05435249,54.20958405
36.68728559,92.10259434,54.26211407
36.67935249,92.13261149,54.26361492
36.66477273,92.19264580,54.28484134
36.62349914,92.25085763,54.24614065
36.63475557,92.26168525,54.28762864
36.54931389,92.17924528,54.21119211
36.34198113,92.02808748,54.03001715
36.32429245,91.92527873,54.02583619
36.39065180,91.91487993,54.05510292
36.45068611,91.92281304,54.09562607
36.46408662,91.89869211,54.07021870
36.47941681,91.85591767,54.06625214
36.49463979,91.82954545,54.07354202
36.51168525,91.80928388,54.04749142
36.54984991,91.78848628,54.07279160
36.57161235,91.76715266,54.08833619
36.56196398,91.73820755,54.03752144
36.58876501,91.70840480,54.01436535
36.61031304,91.70572470,54.02026158
36.63164666,91.71633791,54.06603774
36.66080617,91.73284734,54.09498285
36.68771441,91.75868353,54.12253431
36.69864923,91.76683105,54.13539880
36.71623070,91.77369211,54.11717410
36.70861921,91.81067753,54.13829331
36.73788593,91.83737136,54.17828045
36.75107204,91.86106346,54.17024014
36.75739708,91.87446398,54.16412950
36.75182247,91.89633362,54.17913808
36.76372213,91.95411664,54.22191252
36.77304889,91.96880360,54.23960120
36.78505575,92.02712264,54.23874357
36.77465695,92.03559177,54.26072041
36.80253002,92.10484563,54.31839623
36.73542024,92.14215266,54.27036878
36.73702830,92.16455832,54.25589623
36.74635506,92.16981132,54.31239280
36.74013722,92.18010292,54.29438250
36.65469554,92.16455832,54.25975557
36.47416381,91.97695111,54.10559605
36.44714837,91.86481561,54.09037307
36.45883362,91.82933105,54.05060034
36.51329331,91.81024871,54.05145798
36.57161235,91.81367925,54.09433962
36.56839623,91.73499142,54.08619211
36.57525729,91.71119211,54.01029160
36.60559605,91.68256861,54.07879503
36.64901372,91.67624357,54.07954545
36.66831046,91.65201544,54.02487136
36.67399228,91.58951544,53.98316895
36.68385506,91.56442967,54.00611063
36.70979846,91.57515009,54.02176244
36.74249571,91.57632933,54.02787307
36.76554460,91.58651372,54.02304889
36.79288165,91.63421955,54.05403087
36.78462693,91.61996141,54.08737136
36.79792024,91.62339194,54.04749142
36.79770583,91.64912093,54.06957547
36.80896226,91.68589194,54.09541166
36.82729417,91.71751715,54.11288593
36.82686535,91.74281732,54.19393225
36.83297599,91.78087479,54.13572041
36.84777015,91.79738422,54.14644082
36.84594768,91.84208834,54.15233705
36.83147513,91.86813894,54.20861921
36.80606775,91.93514151,54.19478988
36.83329760,91.98338336,54.23166810
36.84712693,91.99828473,54.25278731
36.83726415,92.02508576,54.32246998
36.81582333,92.05724700,54.31432247
36.81164237,92.07750858,54.25611063
36.61642367,91.90994854,54.13915094
36.52669383,91.80971269,54.05285163
36.59058748,91.74774871,54.12039022
36.64633362,91.75825472,54.10302316
36.69704117,91.72662950,54.10291595
36.74120926,91.70154374,54.12242710
36.76018439,91.69371784,54.07579331
36.75846913,91.69671955,54.09937822
36.76114923,91.66380789,54.05102916
36.75921955,91.62328473,54.02594340
36.77369211,91.57515009,54.02412093
36.80617496,91.56753859,54.05874786
36.83951544,91.56121355,54.03998714
36.84927101,91.55553173,54.04395369
36.86695969,91.57214837,54.08629931
36.89708405,91.60334477,54.10634648
36.91209262,91.61921098,54.12907376
36.91702401,91.61620926,54.14150943
36.90812607,91.64161664,54.12489280
36.92270583,91.64869211,54.13496998
36.91916810,91.66573756,54.14086621
36.90405232,91.67828045,54.10538165
36.91080617,91.72384220,54.12285592
36.92367067,91.74056604,54.15030017
36.90351630,91.77358491,54.18996569
36.89333190,91.84037307,54.15855489
36.91252144,91.87778731,54.19318182
36.90705403,91.89204545,54.21773156
36.91756003,91.91648799,54.24324614
36.90566038,91.92431389,54.25021441
36.76436535,91.79202401,54.10441681
36.65083619,91.62639365,53.97523585
36.67849485,91.54363208,53.95465266
36.73402659,91.52111921,53.98274014
36.82536449,91.49410377,54.01983276
36.86363636,91.51457976,54.04416810
36.86620926,91.47727273,54.04631218
36.89569039,91.48102487,54.08093911
36.90855489,91.45894082,54.00310892
36.92013293,91.42313465,54.00804031
36.91380789,91.35313036,53.99549743
36.92913808,91.32257719,53.97437822
36.95979846,91.32214837,53.99496141
36.99924957,91.32922384,54.03033877
37.03398370,91.33115352,54.00611063
37.03548456,91.33672813,54.02583619
37.04116638,91.35012864,54.02744425
37.04277444,91.37982419,54.02840909
37.03484134,91.40276587,54.04170240
37.04524014,91.40265866,54.07246998
37.01125643,91.41970412,54.02476415
37.04395369,91.45518868,54.06432247
37.03044597,91.46783877,54.06861063
37.04481132,91.49463979,54.11234991
37.05917667,91.53237564,54.08897942
37.03559177,91.54845626,54.09412521
37.03076758,91.62939537,54.11224271
37.05124357,91.65394511,54.11342196
37.03334048,91.66455832,54.15276587
36.95090051,91.58018868,54.08812178
36.76425815,91.35902659,53.92463551
36.79298885,91.22266295,53.87960978
36.83415523,91.14397513,53.85195111
36.92806604,91.12339194,53.88561321
36.99721269,91.08190395,53.87907376
36.99496141,91.02948113,53.88754288
37.02830189,90.97984563,53.85055746
37.08597770,90.93953688,53.84841338
37.10999142,90.89086621,53.85784734
37.11427959,90.79588336,53.84991424
37.13775729,90.75010720,53.79599057
37.16359348,90.71033448,53.83190395
37.21837479,90.71215695,53.81571612
37.22898799,90.71633791,53.83919383
37.27079760,90.71462264,53.86492281
37.29148799,90.71944683,53.87617925
37.30135077,90.74238851,53.86567324
37.30939108,90.73070326,53.88593482
37.32493568,90.74967839,53.88968696
37.29963551,90.77969554,53.86159949
37.29684820,90.78912950,53.86931818
37.29781304,90.79931389,53.87650086
37.30681818,90.82632933,53.90437393
37.31057033,90.85688250,53.89397513
37.33522727,90.89933533,53.95465266
37.36009863,90.93900086,54.00739708
37.35473842,90.99045883,53.98359777
37.30295883,91.01779588,53.97384220
37.31818182,91.06453688,53.98284734
37.29170240,91.06571612,54.00396655
37.15094340,90.90287307,53.90030017
37.03580617,90.73606346,53.78966552
37.11009863,90.54170240,53.69243139
37.17838765,90.48413379,53.70904803
37.24581904,90.44286021,53.73767153
37.29984991,90.37424957,53.71773156
37.33051029,90.28398370,53.64290309
37.34294597,90.22352058,53.65212264
37.37114065,90.19210978,53.63314751
37.38979417,90.15930532,53.62564322
37.40501715,90.08619211,53.59948542
37.43439108,90.05231561,53.61342196
37.49592624,90.03687822,53.65544597
37.52326329,90.00761149,53.67677959
37.55456690,89.97866638,53.59530446
37.58297599,89.98842196,53.64215266
37.62221269,90.00085763,53.61234991
37.63647084,90.01189966,53.67870926
37.62424957,90.03183962,53.67463551
37.60152230,90.02755146,53.69757719
37.60934820,90.03773585,53.64622642
37.62424957,90.05177959,53.72823756
37.62692967,90.10034305,53.69746998
37.62735849,90.10934820,53.75450257
37.61406518,90.15651801,53.74721269
37.62692967,90.21033448,53.77465695
37.64161664,90.25010720,53.78462693
37.64258148,90.29009434,53.83383362
37.59048027,90.38893654,53.75728988
37.62135506,90.42988851,53.82804460
37.63518439,90.47137650,53.82557890
37.59841338,90.49807033,53.83833619
37.43857204,90.33930103,53.75632504
37.31914666,90.09980703,53.57171955
37.37810892,89.98359777,53.56786021
37.48992281,89.88164666,53.63593482
37.58790738,89.82954545,53.59605489
37.65265866,89.74807033,53.58662093
37.70840480,89.69768439,53.56389365
37.72877358,89.63593482,53.55145798
37.76983276,89.59487564,53.52283448
37.80906947,89.55006432,53.54427530
37.81271441,89.50696827,53.53912950
37.84905660,89.43846484,53.54716981
37.86835334,89.41938250,53.49849914
37.92045455,89.41295026,53.53752144
37.94050172,89.42956690,53.56378645
37.96880360,89.43063894,53.60152230
37.97384220,89.44725557,53.57054031
38.00332333,89.47480703,53.56571612
38.01232847,89.51018439,53.60709691
38.01993997,89.53430532,53.64686964
38.02594340,89.57397084,53.66402230
38.01758148,89.58426244,53.69318182
38.00396655,89.62810892,53.65105060
38.02444254,89.66337907,53.66252144
38.00139365,89.68492710,53.66605918
38.01457976,89.77058319,53.66916810
38.00235849,89.79223842,53.64858491
37.96740995,89.87735849,53.70990566
37.96837479,89.88882933,53.74903516
37.95979846,89.96194254,53.73081046
37.95368782,90.02058319,53.74849914
37.93846484,90.07461407,53.80874786
37.84637650,90.02605060,53.73359777
37.69822041,89.81721698,53.56400086
37.73617067,89.63068182,53.51382933
37.82740137,89.55231561,53.54459691
37.90383791,89.51297170,53.52969554
37.93921527,89.47866638,53.53419811
37.95443825,89.44950686,53.55713979
37.99281732,89.40619640,53.58265437
38.01543739,89.40673242,53.53023156
38.02208405,89.37564322,53.55403087
38.02583619,89.30242281,53.45915523
38.03602058,89.25428816,53.46762436
38.06903945,89.22727273,53.49699828
38.09766295,89.24903516,53.52733705
38.14858491,89.26629503,53.52294168
38.16948971,89.27605060,53.59487564
38.17066895,89.28773585,53.57225557
38.18449828,89.30156518,53.57429245
38.19918525,89.36234991,53.62735849
38.21140652,89.39108062,53.62885935
38.21848199,89.39579760,53.61042024
38.19822041,89.43707118,53.63261149
38.20936964,89.44028731,53.63668525
38.20368782,89.46247856,53.64729846
38.20808319,89.52219125,53.64483276
38.18321184,89.55542453,53.69436106
38.14676244,89.62810892,53.63840051
38.14418954,89.67141938,53.66970412
38.17517153,89.74807033,53.71869640
38.16241424,89.78141081,53.69993568
38.15330189,89.79202401,53.71526587
38.01747427,89.66434391,53.63068182
37.89558319,89.49742710,53.51350772
37.94361063,89.34562607,53.46548027
38.02497856,89.28334048,53.48831475
38.08747856,89.25192967,53.53473413
38.14954974,89.24946398,53.60709691
38.14376072,89.24260292,53.52733705
38.15951973,89.24013722,53.51479417
38.19489708,89.25600343,53.54245283
38.18021012,89.20250858,53.53805746
38.15716123,89.13657804,53.47941681
38.18514151,89.11181389,53.46751715
38.20894082,89.08951544,53.55864065
38.23520583,89.09969983,53.58297599
38.25728988,89.10420240,53.55510292
38.28966552,89.15394511,53.58340480
38.29041595,89.17420669,53.56121355
38.28569897,89.20636792,53.56635935
38.29245283,89.22148370,53.58533448
38.28409091,89.27572899,53.61020583
38.29448971,89.30285163,53.63711407
38.29524014,89.32890223,53.57740137
38.29984991,89.34423242,53.65941252
38.30274443,89.36685249,53.57718696
38.31153516,89.45883362,53.65180103
38.30210120,89.51200686,53.67710120
38.24581904,89.55263722,53.67334906
38.27583619,89.60452401,53.70036449
38.26189966,89.65298027,53.71708834
38.17956690,89.58093911,53.67077616
37.99260292,89.34230274,53.47973842
37.99721269,89.16187822,53.40458834
38.07579331,89.08136792,53.43835763
38.16027015,89.02433533,53.41948971
38.17806604,88.95679674,53.45572470
38.20733276,88.88979417,53.41037736
38.22770154,88.88357633,53.37971698
38.26586621,88.83061750,53.41230703
38.30499571,88.80649657,53.42913808
38.32718696,88.76350772,53.40180103
38.35859777,88.71001286,53.42056175
38.38239708,88.67034734,53.41884648
38.40415952,88.66552316,53.41831046
38.44425386,88.66552316,53.43096055
38.46269297,88.70047170,53.45904803
38.45979846,88.71344340,53.42313465
38.48606346,88.73713551,53.44704117
38.49120926,88.77337050,53.42924528
38.43428388,88.79663379,53.47330617
38.46816038,88.79899228,53.46837479
38.46773156,88.83008148,53.47780875
38.46472985,88.85881218,53.51575901
38.47855918,88.90030017,53.54502573
38.45207976,88.92978130,53.50353774
38.44875643,88.97727273,53.48241852
38.44071612,89.03527015,53.52111921
38.46665952,89.12746569,53.60966981
38.41209262,89.23070326,53.52422813
38.44093053,89.28870069,53.62103345
38.39686964,89.30038593,53.59262436
38.21569468,89.09240995,53.45840480
38.16198542,88.86095626,53.34444683
38.22384220,88.68610635,53.29781304
38.35055746,88.59712693,53.33254717
38.42195540,88.54759863,53.36256432
38.43374786,88.50300172,53.32997427
38.45743997,88.43557033,53.29491852
38.54095197,88.37414237,53.32461407
38.56335763,88.32815180,53.35173671
38.59680532,88.23402659,53.24753431
38.58415523,88.19779160,53.22094768
38.60334477,88.15373070,53.23949400
38.65705403,88.13625643,53.24603345
38.68557033,88.12274871,53.26747427
38.70690395,88.11149228,53.26372213
38.75632504,88.16991852,53.35237993
38.76114923,88.20990566,53.36406518
38.78301887,88.23756432,53.34862779
38.77079760,88.26072041,53.39365352
38.77036878,88.27894511,53.33061750
38.75653945,88.31635935,53.40555317
38.74989280,88.33158233,53.38861492
38.76200686,88.38679245,53.39172384
38.73606346,88.39236707,53.36706690
38.73627787,88.42066895,53.38529160
38.71633791,88.48456261,53.37135506
38.71472985,88.53719983,53.42034734
38.71172813,88.60237993,53.42356346
38.64290309,88.67313465,53.43750000
38.66059177,88.72941681,53.44832762
38.62382075,88.75718268,53.46923242
38.56989708,88.72598628,53.43481990
38.40265866,88.47898799,53.26993997
38.43138937,88.27615780,53.21012007
38.49313894,88.19982847,53.19618353
38.60838336,88.10881218,53.23552744
38.67281304,88.04566895,53.24356775
38.67624357,87.98306175,53.18160377
38.71569468,87.92431389,53.18203259
38.74335334,87.90930532,53.17731561
38.75536021,87.87521441,53.18439108
38.77476415,87.83501286,53.16841767
38.79599057,87.77969554,53.17828045
38.81442967,87.75225129,53.13153945
38.86738851,87.74346055,53.20615352
38.88261149,87.74517581,53.14397513
38.91477273,87.76661664,53.19221698
38.90876930,87.78162521,53.19993568
38.93138937,87.82740137,53.22126930
38.98702830,87.89976415,53.27069039
38.96558748,87.92334906,53.26533019
38.96601630,87.96858919,53.27840909
38.94650515,88.02069039,53.24903516
38.94039451,88.03559177,53.25900515
38.93975129,88.07697256,53.33919383
38.95143654,88.12424957,53.31871784
38.97051887,88.16412950,53.37853774
38.97534305,88.23906518,53.37907376
38.96966123,88.32407804,53.39933533
38.88818611,88.38025300,53.31871784
38.93546312,88.42838765,53.42795883
38.95486707,88.47244854,53.46451544
38.90705403,88.50632504,53.44414666
38.72662950,88.33597770,53.30660377
38.67635077,88.15598199,53.19264580
38.69639794,87.98713551,53.15265866
38.77958834,87.94875643,53.20433105
38.82975986,87.92838765,53.26179245
38.87242710,87.88486278,53.22877358
38.88775729,87.85731132,53.22009005
38.91348628,87.83243997,53.22566467
38.94489708,87.81410806,53.19489708
38.93203259,87.80510292,53.21290738
38.95165094,87.75932676,53.16584477
38.96751715,87.71280017,53.16112779
39.00289451,87.71537307,53.16863208
39.01522298,87.71912521,53.15866209
39.06357204,87.73081046,53.18021012
39.07011149,87.76093482,53.20668954
39.08233276,87.81282161,53.26479417
39.08286878,87.85902659,53.22759434
39.09852058,87.89140223,53.23745712
39.10591767,87.91723842,53.25643225
39.10162950,87.95668954,53.30210120
39.09712693,87.99807033,53.31946827
39.11127787,88.03151801,53.30488851
39.12478559,88.06560892,53.32675815
39.07493568,88.13604202,53.35280875
39.07204117,88.17903087,53.35420240
39.06325043,88.21397942,53.36063465
39.02047599,88.29148799,53.38582762
39.03108919,88.35098628,53.42131218
38.99914237,88.30467410,53.39472556
38.82772298,88.16777444,53.24303173
38.79513293,87.99024443,53.15619640
38.84605489,87.91080617,53.18632075
38.89815609,87.85720412,53.19103774
39.01736707,87.90673242,53.22898799
39.04363208,87.89440395,53.29641938
39.07204117,87.88421955,53.28473413
39.05864065,87.86867496,53.29513293
39.06475129,87.83897942,53.23584906
39.05285163,87.82407804,53.24367496
39.03409091,87.79331046,53.20347341
39.05874786,87.76908233,53.21483705
39.07439966,87.79073756,53.19168096
39.12242710,87.78259005,53.25771870
39.12907376,87.80317324,53.26329331
39.14140223,87.85623928,53.27197684
39.14322470,87.88421955,53.28087479
39.15930532,87.91831046,53.30660377
39.17184820,87.94178816,53.30049314
39.16112779,87.98681389,53.32021870
39.13121784,88.03023156,53.30102916
39.14065180,88.06732419,53.36234991
39.14150943,88.11685249,53.33747856
39.11460120,88.13604202,53.36674528
39.11395798,88.19071612,53.36695969
39.13304031,88.25010720,53.41584477
39.12339194,88.31764580,53.45036449
39.07343482,88.32300600,53.45572470
38.81603774,88.19425386,53.25128645
38.82032590,87.98391938,53.18996569
38.89751286,87.90737564,53.17495712
38.94972127,87.86460120,53.22566467
38.99571184,87.84862779,53.22598628
39.03376930,87.82686535,53.22952401
39.06314322,87.79770583,53.21687393
39.09444683,87.79427530,53.24946398
39.10666810,87.79663379,53.19757719
39.11170669,87.76886792,53.19253859
39.10795455,87.74174528,53.21258576
39.11374357,87.72051887,53.20250858
39.14579760,87.70797599,53.21526587
39.15834048,87.72802316,53.24924957
39.19339623,87.76801029,53.24228130
39.20829760,87.80778302,53.29084477
39.23477702,87.82547170,53.26007719
39.24753431,87.86567324,53.28119640
39.22995283,87.89054460,53.28141081
39.23241852,87.93224700,53.35956261
39.21698113,87.96012007,53.26265009
39.20776158,88.00664666,53.30017153
39.19918525,88.05853345,53.32482847
39.19982847,88.10506003,53.36663808
39.19596913,88.14579760,53.35377358
39.18610635,88.21419383,53.44275300
39.19671955,88.25289451,53.43942967
39.19168096,88.32997427,53.46033448
39.14172384,88.33662093,53.43096055
38.97577187,88.19532590,53.26951115
38.86192110,87.99463979,53.17838765
38.90019297,87.83908662,53.18321184
38.94907804,87.80092196,53.21430103
39.02830189,87.76329331,53.19018010
39.02090480,87.73338336,53.15319468
39.04191681,87.70936964,53.18578473
39.09862779,87.68117496,53.16659520
39.11599485,87.66080617,53.16895369
39.14686964,87.65651801,53.17216981
39.15169383,87.61803173,53.15383791
39.14976415,87.62360635,53.18942967
39.19489708,87.57525729,53.18632075
39.25128645,87.60656089,53.19275300
39.26715266,87.62650086,53.22813036
39.28677101,87.64847770,53.20422384
39.32150515,87.69993568,53.29641938
39.30370926,87.74153087,53.24388937
39.31110635,87.77958834,53.25493139
39.29234563,87.81164237,53.30563894
39.27015437,87.85634648,53.27744425
39.27701544,87.87650086,53.31968268
39.27626501,87.93621355,53.28891509
39.24474700,87.96944683,53.29706261
39.24421098,88.01029160,53.33233276
39.24978559,88.06024871,53.33769297
39.25696827,88.15834048,53.36031304
39.24131647,88.20765437,53.37231990
39.22780875,88.27026158,53.46794597
39.22770154,88.32332762,53.45454545
39.14644082,88.30638937,53.41487993
38.96430103,88.11695969,53.24581904
38.92152659,87.98885077,53.19746998
38.93642796,87.88153945,53.15726844
39.02026158,87.87896655,53.20679674
39.06121355,87.86331475,53.23188250
39.11138508,87.85130789,53.23102487
39.14193825,87.80981990,53.18996569
39.17484991,87.78291166,53.16906089
39.18707118,87.74839194,53.18664237
39.20508148,87.71837479,53.24153087
39.20207976,87.70336621,53.22523585
39.23381218,87.68106775,53.19650515
39.23810034,87.69886364,53.18021012
39.26811750,87.70808319,53.21687393
39.28677101,87.73252573,53.23102487
39.30124357,87.76629503,53.29995712
39.33822899,87.80027873,53.28462693
39.32868782,87.86449400,53.28409091
39.30596055,87.90887650,53.35334477
39.30949828,87.96816038,53.30842624
39.31196398,87.98777873,53.34862779
39.31003431,88.01200686,53.34584048
39.30896226,88.08361921,53.37864494
39.27819468,88.15598199,53.40490995
39.28441252,88.19564751,53.38797170
39.29684820,88.25439537,53.39397513
39.29620497,88.33029588,53.45057890
39.28795026,88.38250429,53.46076329
39.26650943,88.42302744,53.39965695
39.26114923,88.48520583,53.45347341
39.23970840,88.55403087,53.48820755
39.11910377,88.49967839,53.47973842
38.97823756,88.29963551,53.32236278
38.93996569,88.17624357,53.30253002
38.98188250,88.16970412,53.27862350
39.05403087,88.14686964,53.31668096
39.11074185,88.14954974,53.34101630
39.11996141,88.12639365,53.32493568
39.14762007,88.11803173,53.34230274
39.14633362,88.11310034,53.30349485
39.15673242,88.10999142,53.30467410
39.13604202,88.08930103,53.27197684
39.14343911,88.08361921,53.30981990
39.17034734,88.06828902,53.30864065
39.20122213,88.06250000,53.29577616
39.24635506,88.07847341,53.30531732
39.26093482,88.12778731,53.34798456
39.27937393,88.15394511,53.35956261
39.24592624,88.21290738,53.39150943
39.23702830,88.22780875,53.38711407
39.23981561,88.26661664,53.39654803
39.25814751,88.31560892,53.43160377
39.25643225,88.38829331,53.46590909
39.27219125,88.43235420,53.51189966
39.25385935,88.48927959,53.46848199
39.23584906,88.51393654,53.52015437
39.23456261,88.55596055,53.51136364
39.25053602,88.60859777,53.51232847
39.25096484,88.69243139,53.57600772
39.25257290,88.74485420,53.59048027
39.21633791,88.81453688,53.58597770
39.10548885,88.79073756,53.58190395
38.94436106,88.62382075,53.43385506
38.92163379,88.51468696,53.33415523
38.94050172,88.41756003,53.36931818
39.03527015,88.42828045,53.42377787
39.08780017,88.44586192,53.40791166
39.11685249,88.45347341,53.45561750
39.14215266,88.47898799,53.45883362
39.14954974,88.49817753,53.43106775
39.15705403,88.50696827,53.47802316
39.12489280,88.48316895,53.48874357
39.11149228,88.43417667,53.43138937
39.13722127,88.42903087,53.45540309
39.15533877,88.45808319,53.39997856
39.18578473,88.49303173,53.46044168
39.20304460,88.51243568,53.44746998
39.21730274,88.53484134,53.48852916
39.21387221,88.58587050,53.51533019
39.21569468,88.64193825,53.50879074
39.22427101,88.67753002,53.52937393
39.20293739,88.73638508,53.58136792
39.20325901,88.77551458,53.57547170
39.21322899,88.84358919,53.63089623
39.19511149,88.87564322,53.65437393
39.18289022,88.93546312,53.64944254
39.18642796,88.98917238,53.65190823
39.17613636,89.06314322,53.69907804
39.17806604,89.11224271,53.73123928
39.04588336,89.06925386,53.68717839
38.92731561,88.92624357,53.56432247
38.92088336,88.80467410,53.48091767
38.95958405,88.76983276,53.53634220
39.05896226,88.73777873,53.49378216
39.11385077,88.73670669,53.53987993
39.09551887,88.75225129,53.56014151
39.13893654,88.77765866,53.56668096
39.13861492,88.76961835,53.59123070
39.12189108,88.76490137,53.52562178
39.11395798,88.70979846,53.55864065
39.11824614,88.67699400,53.55049314
39.11588765,88.68621355,53.52369211
39.16616638,88.70475986,53.53323328
39.18932247,88.71397942,53.55317324
39.19210978,88.73413379,53.53580617
39.21119211,88.77036878,53.54545455
39.20411664,88.80488851,53.59819897
39.19532590,88.82246998,53.58576329
39.20819039,88.84841338,53.61749571
39.20175815,88.89794168,53.61963979
39.18492710,88.93364065,53.62982419
39.18760720,88.96740995,53.62392796
39.17120497,88.99110206,53.61267153
39.16927530,89.04749142,53.69693396
39.15566038,89.08061750,53.66466552
39.08790738,89.03344768,53.64150943
38.92002573,88.87843053,53.47705832
38.89011578,88.70272298,53.43428388
38.94768439,88.60334477,53.39343911
39.02926672,88.55285163,53.44028731
39.06442967,88.50889794,53.43750000
39.10516724,88.48359777,53.42484991
39.13614923,88.46204974,53.46440823
39.15662521,88.45293739,53.49131647
39.15587479,88.42431389,53.42967410
39.18246141,88.38850772,53.45175815
39.15373070,88.28301887,53.33297599
39.19457547,88.26447256,53.34873499
39.23156089,88.26693825,53.35055746
39.24271012,88.27830189,53.40801887
39.30370926,88.27454974,53.43342624
39.32150515,88.32086192,53.42935249
39.33018868,88.35034305,53.44296741
39.34037307,88.39804889,53.51104202
39.32225557,88.41466552,53.48499142
39.31239280,88.42903087,53.49849914
39.30499571,88.46365780,53.46923242
39.29331046,88.49356775,53.46119211
39.28023156,88.54116638,53.48906518
39.28516295,88.56217839,53.54909949
39.30253002,88.59005146,53.54845626
39.28848628,88.66155660,53.54727702
39.17999571,88.58994425,53.48316895
39.03848628,88.38389794,53.31635935
39.03752144,88.24056604,53.23949400
39.09755575,88.10055746,53.30574614
39.21483705,88.01843911,53.28880789
39.28430532,87.95433105,53.29716981
39.27240566,87.89783448,53.29105918
39.30660377,87.82697256,53.24313894
39.33812178,87.78001715,53.22555746
39.40759005,87.73542024,53.24185249
39.42699400,87.69650515,53.23552744
39.43481990,87.58726415,53.18996569
39.46012007,87.57246998,53.16337907
39.48799314,87.55574614,53.18524871
39.52133362,87.55027873,53.23252573
39.52776587,87.56936106,53.26661664
39.55735420,87.60452401,53.23488422
39.57493568,87.64547599,53.28527015
39.58587050,87.66305746,53.23595626
39.57236278,87.71665952,53.28934391
39.56743139,87.74989280,53.28762864
39.56550172,87.78398370,53.30842624
39.58136792,87.80435249,53.35688250
39.55831904,87.84262436,53.34862779
39.54695540,87.89515437,53.35763293
39.52894511,87.97105489,53.38100343
39.54684820,88.02454974,53.36953259
39.53880789,88.07268439,53.40158662
39.46698113,88.14279588,53.39579760
39.29159520,87.95068611,53.24828473
39.19264580,87.74646226,53.17870926
39.28087479,87.59605489,53.14837050
39.35634648,87.51157804,53.11213551
39.43267581,87.46054889,53.14429674
39.47770154,87.41123499,53.14150943
39.50761149,87.37918096,53.12210549
39.54256003,87.35237993,53.12875214
39.56346484,87.31968268,53.11042024
39.56057033,87.30306604,53.10345197
39.57515009,87.28398370,53.12382075
39.57236278,87.25546741,53.08715695
39.60430961,87.25246569,53.10988422
39.60731132,87.25868353,53.09766295
39.63840051,87.27712264,53.11009863
39.66916810,87.33404803,53.12843053
39.68353345,87.33833619,53.16466552
39.66723842,87.39901372,53.17753002
39.67688679,87.43996569,53.20969125
39.69864923,87.47952401,53.20958405
39.67281304,87.52251286,53.22684391
39.64933533,87.57472127,53.24560463
39.66906089,87.61910377,53.27047599
39.64804889,87.71858919,53.29063036
39.62146226,87.75375214,53.32643654
39.61931818,87.82429245,53.34144511
39.61620926,87.89386792,53.39193825
39.58458405,87.95015009,53.34573328
39.58587050,88.02026158,53.36824614
39.53398370,88.05585334,53.38239708
39.33018868,87.93975129,53.24892796
39.24667667,87.80478130,53.14397513
39.29030875,87.70540309,53.12628645
39.36374357,87.67356346,53.13282590
39.41573756,87.66037736,53.19296741
39.41991852,87.64954974,53.16541595
39.45551029,87.63282590,53.19371784
39.45207976,87.62167667,53.20851201
39.48370497,87.62778731,53.17452830
39.47941681,87.62821612,53.20175815
39.46033448,87.61492281,53.17667238
39.47362779,87.61856775,53.20904803
39.49839194,87.61974700,53.20808319
39.52444254,87.67024014,53.19361063
39.53805746,87.69264580,53.21580189
39.54170240,87.74045883,53.24367496
39.52272727,87.82204117,53.26200686
39.55649657,87.82986707,53.36074185
39.47545026,87.93256861,53.31657376
39.47384220,87.96483705,53.26479417
39.48027444,88.00128645,53.34369640
39.47341338,88.04266724,53.34798456
39.47244854,88.08822899,53.40083619
39.45551029,88.14933533,53.36588765
39.44168096,88.19318182,53.40716123
39.42077616,88.26189966,53.41713122
39.41680961,88.35591767,53.44897084
39.42903087,88.41337907,53.49120926
39.43128216,88.46258576,53.48188250
39.37950257,88.50750429,53.50471698
39.22341338,88.41016295,53.39236707
39.11567324,88.30756861,53.29577616
39.11192110,88.24635506,53.26608062
39.16723842,88.24592624,53.32675815
39.19596913,88.27487136,53.31560892
39.20057890,88.27819468,53.35323756
39.21912521,88.27915952,53.41252144
39.22555746,88.30102916,53.36106346
39.23499142,88.34991424,53.40673242
39.24024443,88.33286878,53.38025300
39.23745712,88.33930103,53.36824614
39.24549743,88.34155232,53.38057461
39.25128645,88.38293310,53.39622642
39.25611063,88.40405232,53.38003859
39.28323328,88.44939966,53.38850772
39.28419811,88.48209691,53.44671955
39.29942110,88.52197684,53.49453259
39.27111921,88.59444683,53.47502144
39.26457976,88.62135506,53.48606346
39.24689108,88.69478988,53.46773156
39.26865352,88.71933962,53.54931389
39.25385935,88.78687822,53.49292453
39.24356775,88.81646655,53.56539451
39.23488422,88.86760292,53.56292882
39.18310463,88.91016295,53.54524014
39.19897084,88.94982847,53.59455403
39.20508148,89.01683105,53.62167667
39.20915523,89.09551887,53.61695969
39.14751286,89.10398799,53.61899657
38.96087050,88.99088765,53.48466981
38.89472556,88.90201544,53.44168096
38.92806604,88.90105060,53.49624786
38.96783877,88.92259863,53.46590909
39.02487136,88.95604631,53.54116638
39.05939108,88.95926244,53.57761578
39.04716981,88.95218696,53.54223842
39.06292882,88.99024443,53.53612779
39.03344768,89.03623499,53.54052316
39.03226844,89.04749142,53.54534734
39.00696827,89.01211407,53.52219125
39.02090480,89.02283448,53.57064751
39.04942110,89.06164237,53.60452401
39.07986707,89.10559605,53.58286878
39.07590051,89.13529160,53.62821612
39.06657376,89.18085334,53.65298027
39.07697256,89.21483705,53.66938250
39.06957547,89.28955832,53.67699400
39.07032590,89.33747856,53.66102058
39.07279160,89.38261149,53.69843482
39.01961835,89.43664237,53.71665952
38.97909520,89.46044168,53.66455832
38.97587907,89.51490137,53.71301458
38.99764151,89.53559177,53.78023156
39.01490137,89.60409520,53.77990995
38.97159091,89.66798885,53.78076758
38.95561750,89.70776158,53.79695540
38.83061750,89.64000858,53.73263293
38.73220412,89.51050600,53.64150943
38.70283019,89.42302744,53.58940823
38.73659949,89.46087050,53.62617925
38.78945111,89.47277015,53.65673242
38.80949828,89.50932676,53.69650515
38.82021870,89.52969554,53.64247427
38.85849057,89.53580617,53.69639794
38.83833619,89.53623499,53.67624357
38.81807461,89.53183962,53.66648799
38.80499571,89.53183962,53.66605918
38.80917667,89.52444254,53.64301029
38.82740137,89.54030875,53.68074614
38.85484563,89.55767581,53.69661235
38.88657804,89.58426244,53.72684391
38.89065180,89.67517153,53.75321612
38.85977702,89.69811321,53.72813036
38.86395798,89.72888079,53.74710549
38.82096913,89.74442539,53.75278731
38.84433962,89.79759863,53.80488851
38.83458405,89.84873499,53.82129074
38.82107633,89.90748285,53.82536449
38.82847341,89.92517153,53.83447684
38.82407804,89.98788593,53.85988422
38.80156518,90.00761149,53.86674528
38.75632504,90.09551887,53.80092196
38.76479417,90.11234991,53.85506003
38.75996998,90.15619640,53.83415523
38.59165952,90.02304889,53.77347770
38.49506861,89.90158662,53.63657804
38.46290738,89.86042024,53.65951973
38.50921955,89.84712693,53.67259863
38.57300600,89.84830617,53.74324614
38.57407804,89.84659091,53.70443825
38.58115352,89.83587050,53.70036449
38.59444683,89.82450686,53.71472985
38.60334477,89.82118353,53.72555746
38.62146226,89.82021870,53.67785163
38.64086621,89.81046312,53.70626072
38.63604202,89.82900943,53.73745712
38.65255146,89.84187393,53.77476415
38.65362350,89.83222556,53.73381218
38.66841767,89.84894940,53.80928388
38.69382504,89.87435678,53.78580617
38.69168096,89.88700686,53.74056604
38.68975129,89.92731561,53.76843911
38.67227702,89.97609348,53.78398370
38.67828045,90.01983276,53.79470412
38.67002573,90.05295883,53.83790738
38.67656518,90.07257719,53.80756861
38.66337907,90.11020583,53.84819897
38.65844768,90.15630360,53.85763293
38.67174099,90.22126930,53.89879931
38.66541595,90.28548456,53.95551029
38.65662521,90.34680532,53.91284305
38.65105060,90.37039022,53.90062178
38.64858491,90.46226415,53.91638079
38.58769297,90.45904803,53.93203259
38.40340909,90.29513293,53.81635935
38.28559177,90.16938250,53.68782161
38.30660377,90.13572041,53.68782161
38.34648370,90.10634648,53.75664666
38.41112779,90.12253431,53.76618782
38.42227702,90.12296312,53.74667667
38.43031732,90.11942539,53.75471698
38.44843482,90.11288593,53.77111921
38.46708834,90.12253431,53.79105918
38.49710549,90.12403516,53.81400086
38.49453259,90.13304031,53.80606775
38.49378216,90.13464837,53.80960549
38.49174528,90.12210549,53.81593053
38.52830189,90.14215266,53.79781304
38.54427530,90.16670240,53.82686535
38.57825901,90.21419383,53.86385077
38.55778302,90.22759434,53.87789451
38.55488851,90.24313894,53.90158662
38.55692539,90.26575901,53.87682247
38.56121355,90.30606775,53.92484991
38.54995712,90.36771012,53.88957976
38.54588336,90.37650086,53.93074614
38.57450686,90.41412950,53.96816038
38.54148799,90.44800600,53.92527873
38.52219125,90.48123928,53.95315180
38.50804031,90.54063036,53.99989280
38.49056604,90.56818182,53.99206690
38.46676672,90.63443396,54.00771870
38.48584906,90.70733276,54.00964837
38.45272298,90.77326329,53.99153087
38.45079331,90.78955832,54.00589623
38.24817753,90.62296312,53.88754288
38.11385077,90.48970840,53.80531732
38.11460120,90.43492710,53.79363208
38.19146655,90.43782161,53.79266724
38.24303173,90.42956690,53.85602487
38.27026158,90.47630789,53.89376072
38.28098199,90.48381218,53.85152230
38.28462693,90.48981561,53.87939537
38.30617496,90.48649228,53.85291595
38.29652659,90.46762436,53.87349914
38.27680103,90.46397942,53.89708405
38.28205403,90.43771441,53.89483276
38.27390652,90.44500429,53.86224271
38.28891509,90.45015009,53.88882933
38.29856346,90.48810034,53.86717410
38.33147513,90.52958834,53.92216981
38.36706690,90.56968268,53.97620069
38.36760292,90.62467839,53.97030446
38.36545883,90.64204545,53.96966123
38.36706690,90.67817324,54.00235849
38.34969983,90.70368782,53.99957118
38.34058748,90.74474700,54.02347770
38.33501286,90.76125643,54.02905232
38.29448971,90.81978988,54.03677101
38.30671098,90.83115352,54.05499571
38.30746141,90.90458834,54.07590051
38.32975986,90.96012007,54.13186106
38.31153516,91.00128645,54.12156947
38.32825901,91.05274443,54.12478559
38.25557461,91.10098628,54.12221269
38.20443825,91.05585334,54.08865780
38.00761149,90.87103345,53.91734563
37.96601630,90.78912950,53.88239708
38.00139365,90.79856346,53.92656518
38.03719983,90.80928388,53.91713122
38.05060034,90.82504288,53.93331904
38.12939537,90.86395798,53.94500429
38.11578045,90.88679245,53.99292453
38.13604202,90.90147942,53.96408662
38.12307033,90.88464837,53.98391938
38.10709691,90.88647084,53.97802316
38.10430961,90.88325472,53.96322899
38.09884220,90.91573756,54.00707547
38.12660806,90.92592196,54.02026158
38.15598199,90.96172813,54.03719983
38.17945969,90.96312178,54.02401372
38.18685678,91.00482419,54.06571612
38.17249142,91.03162521,54.06185678
38.18021012,91.04577616,54.09316038
38.17999571,91.09316038,54.09316038
38.16906089,91.11224271,54.10302316
38.16541595,91.13754288,54.13647084
38.17624357,91.17710120,54.10891938
38.15909091,91.20797599,54.15308748
38.16713122,91.24238851,54.17956690
38.16509434,91.28451973,54.19403945
38.15437393,91.34326758,54.21612350
38.15608919,91.39000858,54.24571184
38.12371355,91.40930532,54.22898799
37.97502144,91.32750858,54.15040738
37.79813465,91.20508148,54.01640223
37.81582333,91.16380789,54.00364494
37.87349914,91.15137221,54.03580617
37.92442110,91.17313465,54.03784305
37.97041166,91.19232419,54.07311321
37.99249571,91.19425386,54.08855060
38.00160806,91.17978130,54.05842624
38.01490137,91.19779160,54.08737136
37.98434820,91.14322470,54.06475129
37.96794597,91.15726844,54.06828902
37.96258576,91.12768010,54.04041595
37.97373499,91.12467839,54.05928388
38.00814751,91.17324185,54.09841338
38.02744425,91.19725557,54.11985420
38.04545455,91.22212693,54.10827616
38.06121355,91.24689108,54.13947256
38.06432247,91.26822470,54.13143225
38.03033877,91.28698542,54.11395798
38.03784305,91.31335763,54.15105060
38.01876072,91.36567324,54.16069897
38.02369211,91.38732847,54.18085334
38.02605060,91.41177101,54.22051887
38.02637221,91.44682676,54.20668954
38.03108919,91.47727273,54.23434820
38.02744425,91.49764151,54.24721269
38.02894511,91.54566895,54.27208405
37.97009005,91.55692539,54.24560463
37.79234563,91.41327187,54.08758576
37.67635077,91.26790309,54.00589623
37.68299743,91.19243139,53.99817753
37.74024443,91.19264580,53.96494425
37.82804460,91.14215266,54.00107204
37.83072470,91.15555317,54.02133362
37.85656089,91.14172384,54.01114923
37.87714408,91.11878216,54.03516295
37.89719125,91.12081904,54.02433533
37.90791166,91.11074185,54.02433533
37.90737564,91.07354202,54.00578902
37.91627358,91.03784305,54.01361492
37.93471269,91.01554460,54.01983276
37.95969125,91.01372213,54.01157804
38.00075043,91.01811750,54.05392367
38.01114923,91.04931389,54.06303602
38.03677101,91.05992710,54.05070755
38.06217839,91.09048027,54.07332762
38.04159520,91.12135506,54.09433962
38.04491852,91.15405232,54.08951544
38.03709262,91.18739280,54.11556604
38.03451973,91.20990566,54.09090909
38.02444254,91.22277015,54.11792453
38.02755146,91.25203688,54.11524443
38.03655660,91.28977273,54.14890652
38.02015437,91.31603774,54.15394511
38.01822470,91.32397084,54.12500000
38.00600343,91.36706690,54.18889365
37.89311750,91.34530446,54.11910377
37.71944683,91.12167667,54.00075043
37.69822041,90.96708834,53.90769726
37.76511578,90.92506432,53.85924099
37.82557890,90.88196827,53.95293739
37.88143225,90.86899657,53.92174099
37.87832333,90.84466123,53.95250858
37.93439108,90.76972556,53.86706690
37.96194254,90.74967839,53.88325472
37.99764151,90.72126930,53.86942539
38.03441252,90.67720840,53.87317753
38.02412093,90.61438679,53.88239708
38.01554460,90.55542453,53.84294597
38.07343482,90.52240566,53.79213122
38.10527444,90.54180961,53.84262436
38.13196827,90.56764580,53.88968696
38.14676244,90.58179674,53.83286878
38.14483276,90.59594768,53.89633362
38.14729846,90.61127787,53.92560034
38.14311750,90.63218268,53.93085334
38.15576758,90.66284305,53.93471269
38.17238422,90.70004288,53.90094340
38.16831046,90.71633791,53.92945969
38.17495712,90.74678388,53.94511149
38.12960978,90.74153087,53.98895798
38.15490995,90.79084477,53.98745712
38.14869211,90.83351201,54.00418096
38.17120497,90.87210549,54.02798027
38.14901372,90.92881647,54.02980274
38.13314751,90.95261578,54.00664666
37.96698113,90.79909949,53.88593482
37.84026587,90.62178388,53.77122642
37.83822899,90.53591338,53.75889794
37.94725557,90.46269297,53.77487136
38.01039880,90.42356346,53.79899228
38.05853345,90.40566038,53.77851630
38.09112350,90.35162950,53.79288165
38.10323756,90.31485849,53.80242281
38.15265866,90.25128645,53.76951115
38.15566038,90.24571184,53.76522298
38.17785163,90.21858919,53.72180532
38.19714837,90.16948971,53.72287736
38.20411664,90.14429674,53.73091767
38.25192967,90.14751286,53.74571184
38.26597341,90.14376072,53.74967839
38.29856346,90.16713122,53.76189966
38.29234563,90.17141938,53.78848628
38.31400086,90.20765437,53.79084477
38.34455403,90.21076329,53.80488851
38.32718696,90.24378216,53.79566895
38.32129074,90.27412093,53.80521012
38.29063036,90.26533019,53.81099914
38.28987993,90.30167238,53.79888508
38.27744425,90.32354202,53.78945111
38.27690823,90.35345197,53.85323756
38.26125643,90.41906089,53.83801458
38.26029160,90.45175815,53.84755575
38.25879074,90.53151801,53.92538593
38.28087479,90.56603774,53.93524871
38.23113208,90.60205832,53.91788165
38.07129074,90.47480703,53.76147084
37.96719554,90.34562607,53.74271012
38.01758148,90.24399657,53.68567753
38.07054031,90.19103774,53.75557461
38.14515437,90.18096055,53.68846484
38.17688679,90.16016295,53.67388508
38.18760720,90.13486278,53.70283019
38.22577187,90.12135506,53.72748714
38.24764151,90.12371355,53.71698113
38.20958405,90.08522727,53.67442110
38.24431818,90.05842624,53.71215695
38.24678388,90.04867067,53.72105489
38.25986278,90.04309605,53.74378216
38.32793739,90.08072470,53.73831475
38.34830617,90.10023585,53.78248285
38.34862779,90.13228988,53.76072041
38.37071184,90.15673242,53.77765866
38.36846055,90.18063894,53.78419811
38.36674528,90.19307461,53.79684820
38.36953259,90.22888079,53.80649657
38.36438679,90.25375214,53.84701973
38.35677530,90.29395369,53.84348199
38.36888937,90.34123070,53.87017581
38.34444683,90.38153945,53.91284305
38.33404803,90.43610635,53.90844768
38.36031304,90.46987564,53.90984134
38.34626930,90.51908233,53.92216981
38.33533448,90.57590051,53.93846484
38.28923671,90.56775300,53.98520583
38.12607204,90.41723842,53.81946827
38.03602058,90.25771870,53.70240137
38.04802744,90.20497427,53.66873928
38.14461835,90.15598199,53.69007290
38.21322899,90.13947256,53.68213979
38.26243568,90.10506003,53.70304460
38.26511578,90.08587050,53.71558748
38.28752144,90.09905660,53.73713551
38.30596055,90.09648370,53.77915952
38.30638937,90.08126072,53.77465695
38.30649657,90.05756861,53.72759434
38.28955832,89.99067324,53.71001286
38.30628216,90.00353774,53.73402659
38.34262436,90.00385935,53.73456261
38.36963979,90.02830189,53.72255575
38.40973413,90.06496569,53.77615780
38.37864494,90.07504288,53.74442539
38.39108062,90.09862779,53.78687822
38.39601201,90.13336192,53.77401372
38.36792453,90.16209262,53.79545455
38.38647084,90.18792882,53.80821184
38.37006861,90.21548027,53.82225557
38.37285592,90.23241852,53.79759863
38.33812178,90.28387650,53.79695540
38.32107633,90.30242281,53.79213122
38.33565609,90.34937822,53.83737136
38.34594768,90.41134220,53.87639365
38.29781304,90.40501715,53.84991424
38.08061750,90.21548027,53.67538593
38.05724700,90.08147513,53.64686964
38.08265437,89.96344340,53.58093911
38.14976415,89.88025300,53.60688250
38.26029160,89.86771012,53.63379074
38.28505575,89.82943825,53.62382075
38.32793739,89.80821184,53.63068182
38.33812178,89.76908233,53.61792453
38.33780017,89.73659949,53.61288593
38.36556604,89.70304460,53.61792453
38.35602487,89.64740566,53.52347770
38.39172384,89.62885935,53.51007719
38.40823328,89.59391081,53.54373928
38.45004288,89.57139794,53.59005146
38.48606346,89.60527444,53.57890223
38.51704545,89.59830617,53.65748285
38.51425815,89.63582762,53.59551887
38.50128645,89.65158662,53.63271870
38.48617067,89.66906089,53.63668525
38.47373499,89.68471269,53.66348628
38.46687393,89.70658233,53.66477273
38.47684391,89.75857633,53.68396226
38.48520583,89.76114923,53.67581475
38.49892796,89.79416810,53.69232419
38.49313894,89.82054031,53.68031732
38.47277015,89.86492281,53.67753002
38.47448542,89.91402230,53.75192967
38.46826758,89.98070326,53.73434820
38.42495712,90.00857633,53.71933962
38.30906947,89.87189108,53.67184820
38.16005575,89.68664237,53.54341767
38.17849485,89.56185678,53.48681389
38.27390652,89.41906089,53.46858919
38.34551887,89.37274871,53.44779160
38.42978130,89.31571612,53.43771441
38.47705832,89.27251286,53.49078045
38.48231132,89.19736278,53.39204545
38.51929674,89.16230703,53.41123499
38.53419811,89.11803173,53.44286021
38.55253002,89.08447684,53.43589194
38.58404803,89.03666381,53.41144940
38.62585763,88.97813036,53.39343911
38.63861492,88.97073328,53.40984134
38.66412950,88.93921527,53.43707118
38.71740995,88.97169811,53.42431389
38.71966123,88.97716552,53.40126501
38.73027444,88.97920240,53.43503431
38.72963122,89.00921955,53.51007719
38.70883362,89.05017153,53.47941681
38.73316895,89.09165952,53.48123928
38.73938679,89.12403516,53.52004717
38.72534305,89.14579760,53.49142367
38.72555746,89.17517153,53.48499142
38.71590909,89.23263293,53.54459691
38.71183533,89.26629503,53.57096913
38.71472985,89.30199400,53.56507290
38.69704117,89.37071184,53.56432247
38.69629074,89.41198542,53.53634220
38.72105489,89.46483705,53.61149228
38.67174099,89.49721269,53.61642367
38.52176244,89.38561321,53.51833190
38.36545883,89.16713122,53.32922384
38.37982419,88.96580189,53.31271441
38.49571184,88.87328473,53.32697256
38.59734134,88.80981990,53.28494854
38.64944254,88.76672384,53.31196398
38.72362779,88.68782161,53.34112350
38.72695111,88.61567324,53.34701973
38.76908233,88.57461407,53.29073756
38.77208405,88.53623499,53.31153516
38.78441252,88.50246569,53.27690823
38.81228559,88.44521870,53.26382933
38.83426244,88.35934820,53.26050600
38.84959262,88.33479846,53.24624786
38.87993139,88.34069468,53.18417667
38.89429674,88.37500000,53.28151801
38.91938250,88.42152659,53.25407376
38.94629074,88.44843482,53.27111921
38.94328902,88.47866638,53.29084477
38.93417667,88.50707547,53.30531732
38.94961407,88.52144082,53.29331046
38.93514151,88.56764580,53.35581046
38.91734563,88.58887221,53.34208834
38.89354631,88.61695969,53.32064751
38.92656518,88.70015009,53.38818611
38.89869211,88.70894082,53.38904374
38.89987136,88.77444254,53.36685249
38.90651801,88.84476844,53.39515437
38.89493997,88.87971698,53.41702401
38.87703688,88.92935249,53.41048456
38.85473842,88.98702830,53.46837479
38.69210978,88.87006861,53.34005146
38.60141509,88.64451115,53.25664666
38.65062178,88.46623070,53.22094768
38.76801029,88.38336192,53.16509434
38.84176672,88.37993139,53.25343053
38.91209262,88.37328473,53.27294168
38.94639794,88.32118353,53.24699828
38.95443825,88.31121355,53.24217410
38.94296741,88.30574614,53.21676672
38.94950686,88.27798027,53.23445540
38.93117496,88.21676672,53.17560034
38.95422384,88.13239708,53.19671955
38.98177530,88.14772727,53.18760720
39.02229846,88.13572041,53.19854202
39.07472127,88.17763722,53.24817753
39.07332762,88.17731561,53.26779588
39.03119640,88.24088765,53.23338336
39.05295883,88.28044597,53.24935678
39.04609777,88.31003431,53.23413379
39.06775300,88.33340480,53.28709262
39.07761578,88.33790738,53.28559177
39.07718696,88.35441681,53.28730703
39.07707976,88.41841767,53.34809177
39.05060034,88.45132933,53.33490566
39.05606775,88.49131647,53.33415523
39.04170240,88.55563894,53.38089623
39.05638937,88.60656089,53.41723842
39.03998714,88.67056175,53.37960978
39.00332333,88.68235420,53.40469554
38.87049743,88.56453688,53.32632933
38.79834906,88.33072470,53.16520154
38.80864065,88.16670240,53.12660806
38.90298027,88.09723413,53.14740566
38.98906518,88.04545455,53.16852487
39.02004717,88.02004717,53.17120497
39.04470412,87.98938679,53.13025300
39.07472127,87.98231132,53.15255146
39.06828902,87.99367496,53.15662521
39.05274443,87.96097770,53.13765009
39.04952830,87.90780446,53.12114065
39.07632933,87.84455403,53.12650086
39.11331475,87.82986707,53.16434391
39.13153945,87.83951544,53.11245712
39.15994854,87.85934820,53.14451115
39.19478988,87.89590480,53.14504717
39.17795883,87.92860206,53.16466552
39.19446827,87.97984563,53.17688679
39.17817324,88.03987993,53.13829331
39.17967410,88.07868782,53.25664666
39.16788165,88.12221269,53.21162093
39.18557033,88.16112779,53.19414666
39.16680961,88.20497427,53.24892796
39.18524871,88.23456261,53.27337050
39.17763722,88.27197684,53.32472127
39.17978130,88.34551887,53.32171955
39.18267581,88.39043739,53.35591767
39.14472556,88.45883362,53.36878216
39.14247427,88.51340051,53.36781732
39.00771870,88.40115780,53.28151801
38.86610206,88.16284305,53.08865780
38.88561321,87.93364065,53.04663379
38.95454545,87.82675815,53.01457976
39.04105918,87.78355489,53.04534734
39.09358919,87.73681389,53.04877787
39.11824614,87.68664237,53.06635935
39.13325472,87.64483276,53.05606775
39.18364065,87.60516724,53.04663379
39.20947684,87.55295883,53.04631218
39.21087050,87.53655660,53.04427530
39.23413379,87.46140652,52.96933962
39.29770583,87.38647084,53.00932676
39.32246998,87.39365352,53.02937393
39.35795455,87.41455832,52.99924957
39.38100343,87.42838765,53.06539451
39.36985420,87.47384220,53.06475129
39.34980703,87.49410377,53.06614494
39.35891938,87.52315609,53.09626930
39.37242710,87.57675815,53.05960549
39.30660377,87.63443396,53.09862779
39.32686535,87.67592196,53.11310034
39.33726415,87.70390223,53.10120069
39.30563894,87.77733705,53.13454117
39.31035592,87.80885506,53.14033019
39.30253002,87.85141509,53.14772727
39.31217839,87.89451115,53.16938250
39.29416810,87.93053173,53.17903087
39.26072041,88.02036878,53.19339623
39.27326329,88.05949828,53.22437822
39.21451544,88.11267153,53.23016724
39.00664666,87.91423671,53.02680103
38.96247856,87.67817324,52.94939966
39.03537736,87.46848199,52.84991424
39.12885935,87.39944254,52.92495712
39.20711835,87.32804460,52.90051458
39.25032161,87.28376930,52.91713122
39.29963551,87.21665952,52.92677959
39.32515009,87.16005575,52.93664237
39.35741852,87.11492281,52.91938250
39.37950257,87.08426244,52.90115780
39.40030017,87.03559177,52.88936535
39.41123499,87.00879074,52.84884220
39.43246141,86.96762436,52.82825901
39.49689108,86.97609348,52.80628216
39.47652230,86.98445540,52.83822899
39.49689108,87.00675386,52.93385506
39.51029160,87.04266724,52.92838765
39.53334048,87.10023585,52.95015009
39.52240566,87.11738851,52.93492710
39.53226844,87.15748285,52.97888079
39.46397942,87.23006003,52.95368782
39.49195969,87.25868353,52.98059605
39.50000000,87.30124357,53.03537736
39.51136364,87.34798456,53.02251286
39.48316895,87.41112779,53.01168525
39.46987564,87.47159091,53.11803173
39.46912521,87.51500858,53.14172384
39.45004288,87.59691252,53.12585763
39.43331904,87.63250429,53.08940823
39.43149657,87.70122213,53.12617925
39.37714408,87.77980274,53.13722127
39.18921527,87.63625643,53.03398370
39.12403516,87.41691681,52.93364065
39.22813036,87.26179245,52.93160377
39.33533448,87.17538593,52.91187822
39.37821612,87.13078902,52.87199828
39.43203259,87.08919383,52.89601201
39.44210978,87.06625214,52.91938250
39.48059605,87.05435249,52.86760292
39.51993997,86.99828473,52.90287307
39.51340051,86.96730274,52.86717410
39.48906518,86.91895369,52.83254717
39.50160806,86.89011578,52.85195111
39.54180961,86.86963979,52.87971698
39.56475129,86.87521441,52.87264151
39.58479846,86.87553602,52.86095626
39.59165952,86.89676244,52.89547599
39.61449400,86.94189537,52.90158662
39.64912093,86.96344340,52.93985849
39.63100343,87.02294168,52.89729846
39.60816895,87.06978988,52.93085334
39.61127787,87.10012864,52.91509434
39.62414237,87.13636364,52.92238422
39.59401801,87.16477273,52.96687393
39.60591767,87.19982847,52.99528302
39.58951544,87.23702830,52.99367496
39.60248714,87.26843911,53.04867067
39.60570326,87.36277873,53.07525729
39.58115352,87.41391509,53.07386364
39.57032590,87.45969125,53.12028302
39.53419811,87.51404374,53.11438679
39.33190395,87.34412521,52.92945969
39.29792024,87.15555317,52.84165952
39.37071184,86.99313894,52.85849057
39.45668954,86.95433105,52.86921098
39.52369211,86.94800600,52.85366638
39.53451973,86.93010292,52.85977702
39.55992710,86.93406947,52.88325472
39.60677530,86.91359348,52.89472556
39.61760292,86.88325472,52.91370069
39.61728130,86.87414237,52.87221269
39.61267153,86.81550172,52.85623928
39.62189108,86.74882075,52.81936106
39.63314751,86.76586621,52.84090909
39.68557033,86.80756861,52.89333190
39.68664237,86.83222556,52.89719125
39.69264580,86.89376072,52.91563036
39.68792882,86.91219983,52.89376072
39.70894082,86.95122213,52.94350343
39.70100772,86.96408662,52.93449828
39.69929245,86.99303173,52.94393225
39.66638079,87.04309605,52.94961407
39.61277873,87.10698971,52.90180103
39.63722127,87.15951973,52.97427101
39.66123499,87.20197256,53.00643225
39.64193825,87.24656947,53.00771870
39.63218268,87.29663379,53.05049314
39.64215266,87.36127787,53.07182676
39.63829331,87.44339623,53.07740137
39.55746141,87.44468268,53.06475129
39.37789451,87.23402659,52.90147942
39.37317753,87.01618782,52.83865780
39.43567753,86.89043739,52.81989708
39.52776587,86.83458405,52.83479846
39.56989708,86.80574614,52.82032590
39.59723413,86.72866638,52.80992710
39.64440395,86.69843482,52.78076758
39.65737564,86.67731561,52.81603774
39.67409949,86.66273585,52.78216123
39.69093053,86.63068182,52.79620497
39.70701115,86.60881218,52.79899228
39.72287736,86.57043310,52.81828902
39.74849914,86.56303602,52.78494854
39.77862350,86.57643654,52.84037307
39.79931389,86.60656089,52.81903945
39.81518010,86.65480274,52.84326758
39.82579331,86.67956690,52.82707976
39.79738422,86.70175815,52.90458834
39.81024871,86.76179245,52.90608919
39.79406089,86.78033877,52.90533877
39.78762864,86.82386364,52.90126501
39.78741424,86.87532161,52.91455832
39.77905232,86.92292024,52.90469554
39.73960120,87.01361492,52.94350343
39.76382933,87.03719983,52.99388937
39.74817753,87.09980703,53.01425815
39.75621784,87.13636364,52.93782161
39.76447256,87.19307461,53.05220840
39.75321612,87.25107204,53.03044597
39.70947684,87.29373928,53.04159520
39.50578902,87.14279588,52.87971698
39.43256861,86.91327187,52.81121355
39.51586621,86.73799314,52.67409949
39.55885506,86.67635077,52.74689108
39.66037736,86.61985420,52.70647513
39.68256861,86.58029588,52.72995283
39.71076329,86.51029160,52.72512864
39.71944683,86.45379503,52.74967839
39.78559177,86.40823328,52.71526587
39.81539451,86.38250429,52.74013722
39.83490566,86.34283877,52.72834477
39.84519726,86.31775300,52.76372213
39.84948542,86.29223842,52.69489708
39.87939537,86.28441252,52.70465266
39.94103774,86.32289880,52.74313894
39.94007290,86.34294597,52.71322899
39.95433105,86.36042024,52.77851630
39.95261578,86.39215266,52.76929674
39.93096055,86.43053173,52.72684391
39.95036449,86.48445540,52.78462693
39.95400943,86.52154803,52.80713979
39.94007290,86.57858062,52.84080189
39.92238422,86.60506003,52.85441681
39.92120497,86.64954974,52.84723413
39.86427959,86.70047170,52.87028302
39.86878216,86.75643225,52.86878216
39.88882933,86.80821184,52.83672813
39.87296312,86.86310034,52.90340909
39.90298027,86.95465266,52.99431818
39.88464837,87.05488851,53.00300172
39.85784734,87.10334477,53.01350772
39.75128645,87.01372213,52.95304460
39.57858062,86.77026158,52.80456690
39.60473842,86.60152230,52.77862350
39.68471269,86.52326329,52.76876072
39.73649228,86.46312178,52.74721269
39.77851630,86.41402230,52.69489708
39.82547170,86.39579760,52.72298456
39.84058748,86.35495283,52.64912093
39.87875214,86.29577616,52.71430103
39.91412950,86.25310892,52.68471269
39.94939966,86.22062607,52.67024014
39.94221698,86.16584477,52.69436106
39.99078045,86.12778731,52.69575472
40.02347770,86.13539880,52.67484991
40.07504288,86.14601201,52.67345626
40.08404803,86.14343911,52.69532590
40.07407804,86.19393225,52.75332333
40.09466123,86.26147084,52.78677101
40.09519726,86.28687822,52.76758148
40.08780017,86.32472127,52.76382933
40.06764580,86.39033019,52.80499571
40.05735420,86.40319468,52.81550172
40.05070755,86.41027015,52.83329760
40.02819468,86.46751715,52.83501286
39.98799314,86.53987993,52.77101201
40.00450257,86.59048027,52.80188679
40.01533019,86.65190823,52.85688250
39.97491424,86.73220412,52.91788165
40.03441252,86.76704545,52.98552744
40.01575901,86.84766295,52.93385506
39.98295455,86.91434391,52.99346055
39.86224271,86.81743139,52.89204545
39.74882075,86.64826329,52.72159091
39.76811750,86.45379503,52.69436106
39.84626930,86.38614923,52.71998285
39.92506432,86.33651372,52.69693396
39.97909520,86.32900943,52.75653945
39.98402659,86.30692539,52.71494425
40.01479417,86.29395369,52.72577187
40.05360206,86.27079760,52.71526587
40.04041595,86.24882075,52.70743997
40.05392367,86.21087050,52.70229417
40.08319039,86.17195540,52.72963122
40.11299314,86.15716123,52.67988851
40.15030017,86.16509434,52.70711835
40.17924528,86.18589194,52.72598628
40.18224700,86.20904803,52.79095197
40.15941252,86.22180532,52.76811750
40.16166381,86.25107204,52.76843911
40.15630360,86.29802744,52.77894511
40.18213979,86.32236278,52.81657376
40.14622642,86.40737564,52.82504288
40.15212264,86.42013293,52.82407804
40.12317753,86.48102487,52.79599057
40.12778731,86.52873070,52.87843053
40.07954545,86.59305317,52.85506003
40.04909949,86.63572041,52.87778731
40.06614494,86.70786878,52.90319468
40.05531732,86.74742710,52.90930532
40.06421527,86.80456690,52.93106775
39.99303173,86.82515009,52.96044168
39.81593053,86.63711407,52.80049314
39.77454974,86.43921527,52.71987564
39.87875214,86.33308319,52.70015009
39.94168096,86.28473413,52.68567753
40.04073756,86.26908233,52.71912521
40.07322041,86.23188250,52.71430103
40.10216552,86.21687393,52.67635077
40.11899657,86.16252144,52.70583190
40.14215266,86.14558319,52.69961407
40.16348628,86.13561321,52.71580189
40.16927530,86.10645369,52.70615352
40.17667238,86.07825901,52.69918525
40.19897084,86.04824185,52.67924528
40.21419383,86.07525729,52.74271012
40.22169811,86.08083190,52.72641509
40.25857633,86.12778731,52.76350772
40.26179245,86.16337907,52.75364494
40.26854631,86.20701115,52.76597341
40.24335334,86.25321612,52.76179245
40.25128645,86.29352487,52.79609777
40.24303173,86.34766295,52.83501286
40.20261578,86.37800172,52.81925386
40.22319897,86.42109777,52.88743568
40.17699400,86.49217410,52.89762007
40.18942967,86.61781732,52.87317753
40.10302316,86.65448113,52.87532161
40.13572041,86.68867925,52.90523156
40.14311750,86.75353774,52.95701115
40.14579760,86.83512007,53.01865352
40.11524443,86.88925815,53.05177959
39.98756432,86.82890223,52.92152659
39.83276158,86.55295883,52.75557461
39.83040309,86.41337907,52.70475986
39.95122213,86.32257719,52.71687393
40.06560892,86.25964837,52.74206690
40.09455403,86.22855918,52.73756432
40.12135506,86.17216981,52.72384220
40.14429674,86.12178388,52.66273585
40.20068611,86.08962264,52.69575472
40.23842196,86.05467410,52.70647513
40.22223413,86.03012436,52.67913808
40.25096484,85.98316895,52.71794597
40.26543739,85.96204974,52.70475986
40.30799743,85.95808319,52.68835763
40.32568611,85.98970840,52.69939966
40.31314322,86.02712264,52.68900086
40.34165952,86.05220840,52.74560463
40.32515009,86.09401801,52.71601630
40.32268439,86.13850772,52.77658662
40.33694254,86.15705403,52.80242281
40.29845626,86.19425386,52.75750429
40.29663379,86.26318611,52.82858062
40.28173242,86.33147513,52.77980274
40.27776587,86.35645369,52.81978988
40.25268010,86.41241424,52.84380360
40.25300172,86.48456261,52.89022298
40.19939966,86.60012864,52.86406518
40.17753002,86.63100343,52.88529160
40.18975129,86.68589194,52.88915094
40.17334906,86.77240566,52.96644511
40.15533877,86.82729417,52.94071612
40.14301029,86.88164666,52.97598628
39.99549743,86.81475129,52.89772727
39.84841338,86.60827616,52.75021441
39.84669811,86.44918525,52.66680961
39.92742281,86.41005575,52.75075043
40.04524014,86.32804460,52.70518868
40.08179674,86.27004717,52.73016724
40.08490566,86.21933962,52.71483705
40.10377358,86.15566038,52.70733276
40.14322470,86.12006861,52.65930532
40.16563036,86.07472127,52.67956690
40.17002573,86.04674099,52.68010292
40.21322899,86.03162521,52.69757719
40.24860635,86.03376930,52.62703688
40.27015437,86.03987993,52.69511149
40.27926672,86.05499571,52.72030446
40.32750858,86.09916381,52.74903516
40.31325043,86.11921098,52.74764151
40.29674099,86.14665523,52.72084048
40.27540738,86.14354631,52.71258576
40.26608062,86.18567753,52.71505146
40.25075043,86.24474700,52.73659949
40.24142367,86.30081475,52.77208405
40.26865352,86.40909091,52.82675815
40.24346055,86.44350343,52.85516724
40.24967839,86.52347770,52.81142796
40.16788165,86.57332762,52.83833619
40.19018010,86.62264151,52.85934820
40.15801887,86.65030017,52.89879931
40.16412950,86.72137650,52.88325472
40.16831046,86.78966552,52.93546312
40.16873928,86.86835334,52.95218696
40.18567753,86.97684391,53.00364494
40.05521012,86.93342624,52.97266295
39.89515437,86.75171527,52.80617496
39.86535163,86.62414237,52.81260720
39.92484991,86.50718268,52.74474700
40.02176244,86.47459262,52.78183962
40.07300600,86.46322899,52.82043310
40.09348199,86.45304460,52.75192967
40.11084906,86.42581475,52.78516295
40.10666810,86.43900086,52.76061321
40.14762007,86.42742281,52.76511578
40.14440395,86.38539880,52.78527015
40.16316467,86.34155232,52.77873070
40.20336621,86.31871784,52.79534734
40.22662950,86.31153516,52.78966552
40.26136364,86.35634648,52.80874786
40.25718268,86.39354631,52.81743139
40.27090480,86.42334906,52.81893225
40.27433533,86.46472985,52.80435249
40.26425815,86.51297170,52.88582762
40.24924957,86.56057033,52.90147942
40.21623070,86.60195111,52.85816895
40.20475986,86.63786449,52.86149228
40.20379503,86.67077616,52.93492710
40.20808319,86.70250858,52.94243139
40.11846055,86.77583619,52.91134220
40.14236707,86.82054031,52.98198971
40.16745283,86.87006861,52.96676672
40.16102058,86.92152659,52.96054889
40.15233705,86.98209691,52.98102487
40.14343911,87.04545455,53.03301887
40.12628645,87.10570326,53.01114923
39.99024443,87.04663379,52.97759434
39.86267153,86.89440395,52.87081904
39.87060463,86.78591338,52.85152230
39.92688679,86.71590909,52.81389365
40.00632504,86.71944683,52.89440395
40.04138079,86.70518868,52.91530875
40.03741424,86.69243139,52.89654803
40.04277444,86.68021012,52.90083619
40.05767581,86.67088336,52.89579760
40.08436964,86.65555317,52.88175386
40.09048027,86.61535163,52.86406518
40.06936106,86.55177959,52.77605060
40.06893225,86.53827187,52.86781732
40.12467839,86.60988422,52.83758576
40.18878645,86.66219983,52.84316038
40.16895369,86.71226415,52.91552316
40.17785163,86.72073328,52.88496998
40.15533877,86.76790309,52.94414666
40.15394511,86.81303602,52.96698113
40.17281304,86.86878216,52.98156089
40.13882933,86.88325472,52.98466981
40.12960978,86.92892367,52.98595626
40.12853774,86.97201973,53.05263722
40.15587479,87.03923671,53.06496569
40.07461407,87.10956261,53.00857633
40.07536449,87.14954974,53.02497856
40.08083190,87.18739280,53.06968268
40.05360206,87.23349057,53.08833619
40.07032590,87.29995712,53.07911664
39.99367496,87.26211407,53.05521012
39.80928388,87.10881218,52.92356346
39.79470412,86.93449828,52.84294597
39.86181389,86.84873499,52.84380360
39.93792882,86.81271441,52.87725129
39.97973842,86.80177959,52.88325472
40.00353774,86.75032161,52.91906089
40.01543739,86.71097770,52.90737564
40.07375643,86.67710120,52.89858491
40.06978988,86.68428388,52.87960978
40.07804460,86.63336192,52.84412521
40.07900943,86.60623928,52.88925815
40.11374357,86.59551887,52.88411235
40.12875214,86.58458405,52.88132504
40.15051458,86.61149228,52.86642367
40.18653516,86.64858491,52.90651801
40.19757719,86.68385506,52.90340909
40.19832762,86.71054889,52.91659520
40.18985849,86.73745712,52.93213979
40.18975129,86.75450257,52.91573756
40.19125214,86.80831904,52.93739280
40.17635077,86.84294597,52.99324614
40.15673242,86.87585763,53.02186964
40.16638079,86.94725557,53.03323328
40.14954974,86.99924957,52.99195969
40.12092624,87.02294168,53.02873070
40.05585334,87.08865780,52.94200257
40.11159949,87.15405232,53.03998714
40.12660806,87.22673671,53.07000429
40.12714408,87.28044597,53.10784734
40.09240995,87.32611492,53.14451115
39.91723842,87.21397942,52.97662950
39.76157804,87.00407376,52.81775300
39.80488851,86.86556604,52.82911664
39.87853774,86.84101630,52.84165952
39.96869640,86.79116638,52.87092624
40.03087479,86.73584906,52.85012864
40.02186964,86.69575472,52.76822470
40.04942110,86.64033019,52.81807461
40.10430961,86.60345197,52.84358919
40.12242710,86.57397084,52.81668096
40.12982419,86.52755146,52.84594768
40.15887650,86.50407376,52.85098628
40.15812607,86.50396655,52.80585334
40.17849485,86.48424099,52.80906947
40.20979846,86.49646226,52.81485849
40.23713551,86.49957118,52.81925386
40.20368782,86.54373928,52.87478559
40.18814322,86.58715695,52.83093911
40.21515866,86.61738851,52.87660806
40.21955403,86.68803602,52.88357633
40.19071612,86.70722556,52.91541595
40.19725557,86.75900515,52.94060892
40.21333619,86.80553173,52.94403945
40.21065609,86.86245712,52.98038165
40.16219983,86.91112779,53.01661664
40.16016295,86.97598628,53.03387650
40.12585763,87.04909949,52.97469983
40.14804889,87.11417238,53.01983276
40.15919811,87.18063894,53.07622213
40.13957976,87.22512864,53.04266724
40.13968696,87.31764580,53.10774014
40.10506003,87.36942539,53.12928816
40.00857633,87.33769297,53.11320755
39.81796741,87.12028302,52.89858491
39.76372213,86.95368782,52.87500000
39.82890223,86.93653516,52.86363636
39.89783448,86.91027015,52.90984134
39.94361063,86.90201544,52.90180103
39.95347341,86.88143225,52.92409949
39.97780875,86.85516724,52.91262864
40.00010720,86.84466123,52.86953259
40.00310892,86.82279160,52.92034734
40.00793310,86.81518010,52.92281304
40.03151801,86.79288165,52.92259863
40.03441252,86.77733705,52.91713122
40.05435249,86.79749142,52.87039022
40.09637650,86.81378645,52.94521870
40.12114065,86.85334477,52.93224700
40.09830617,86.88282590,52.95593911
40.11610206,86.91198542,52.95829760
40.12735849,86.95604631,52.93503431
40.09916381,86.99560463,52.94521870
40.09519726,87.04716981,52.99120926
40.09187393,87.05392367,53.01725986
40.06367925,87.09884220,52.99399657
40.09262436,87.16230703,53.04888508
40.07568611,87.19789880,53.08790738
40.02712264,87.26361492,53.08672813
40.03559177,87.31110635,53.07504288
40.04588336,87.37392796,53.08897942
40.07171955,87.44650515,53.16927530
40.03934391,87.49539022,53.17356346
40.02948113,87.54706261,53.18192539
39.94800600,87.59701973,53.19671955
39.76061321,87.42570755,53.02497856
39.69457547,87.32086192,52.96258576
39.75139365,87.26254288,52.98209691
39.81367925,87.25793310,53.00000000
39.85806175,87.25750429,52.98627787
39.86481561,87.23638508,53.01575901
39.89569039,87.21365780,53.00911235
39.90362350,87.22587907,53.02026158
39.91756003,87.25589623,52.96322899
39.90930532,87.23456261,53.00064322
39.88614923,87.22169811,53.00814751
39.90662521,87.22394940,53.01382933
39.94575472,87.24313894,53.00450257
39.96204974,87.24892796,52.98520583
39.98499142,87.28494854,53.08512007
39.94843482,87.30370926,53.04191681
39.95411664,87.35420240,53.07268439
39.98370497,87.41209262,53.11342196
39.94489708,87.43996569,53.14837050
39.91670240,87.47673671,53.10473842
39.94157376,87.54213122,53.14997856
39.93664237,87.57965266,53.17742281
39.94028731,87.63368353,53.21408662
39.93138937,87.68910806,53.19403945
39.87617925,87.74796312,53.16584477
39.86706690,87.80939108,53.13121784
39.89108062,87.85506003,53.26843911
39.88282590,87.90040738,53.26961835
39.86267153,87.95765437,53.25096484
39.83855060,88.02658662,53.29781304
39.67602916,87.96440823,53.19746998
39.54824185,87.78301887,53.10077187
39.51243568,87.71247856,52.99399657
39.58962264,87.63872213,53.12885935
39.63550600,87.61363636,53.08554889
39.69328902,87.58672813,53.09037307
39.69039451,87.59905660,53.06925386
39.72716552,87.56850343,53.07986707
39.74774871,87.54984991,53.06207118
39.74678388,87.53730703,53.04373928
39.77722985,87.53151801,53.08061750
39.75203688,87.50246569,53.03719983
39.76951115,87.47684391,53.06046312
39.78162521,87.48552744,53.08265437
39.82611492,87.51436535,53.12006861
39.84412521,87.55767581,53.14472556
39.88089623,87.60495283,53.16198542
39.88507719,87.65394511,53.21526587
39.88111063,87.67828045,53.21966123
39.87993139,87.71097770,53.21119211
39.85795455,87.75139365,53.21172813
39.85120069,87.79309605,53.21891081
39.84412521,87.82096913,53.21912521
39.84069468,87.88829331,53.27744425
39.83072470,87.93792882,53.25653945
39.77079760,88.02851630,53.22920240
39.76672384,88.07675815,53.27658662
39.75782590,88.11138508,53.26490137
39.76490137,88.15105060,53.31464408
39.78451973,88.24764151,53.36578045
39.75268010,88.27519297,53.42635077
39.73070326,88.33940823,53.41831046
39.60398799,88.32632933,53.36084906
39.44746998,88.12028302,53.14686964
39.41691681,88.01168525,53.07086192
39.44543310,87.98445540,53.12274871
39.52272727,87.95368782,53.14365352
39.53827187,87.95207976,53.16927530
39.57032590,87.92753002,53.17109777
39.57472127,87.89483276,53.13754288
39.61074185,87.88518439,53.14140223
39.65233705,87.85795455,53.15748285
39.64418954,87.84659091,53.15019297
39.64987136,87.81710978,53.13336192
39.66927530,87.82858062,53.15448113
39.69393225,87.80306604,53.15898370
39.70015009,87.82429245,53.19050172
39.73048885,87.86578045,53.22534305
39.69489708,87.86771012,53.18503431
39.70679674,87.87339194,53.18921527
39.69907804,87.91906089,53.20057890
39.67474271,87.96097770,53.21033448
39.67474271,88.00793310,53.28301887
39.67109777,88.04030875,53.19768439
39.65448113,88.08522727,53.26211407
39.64686964,88.14536878,53.24206690
39.59937822,88.18535592,53.19693396
39.61706690,88.21912521,53.25064322
39.63947256,88.29749142,53.31764580
39.62403516,88.34337479,53.32407804
39.60934820,88.38915094,53.36556604
39.62028302,88.44339623,53.37457118
39.61299314,88.50192967,53.40973413
39.61234991,88.55360206,53.39322470
39.53891509,88.59273156,53.39483276
39.38379074,88.46740995,53.27208405
39.28473413,88.34669811,53.20218696
39.31496569,88.29909949,53.22491424
39.39086621,88.28687822,53.30681818
39.42249142,88.28505575,53.28698542
39.44414666,88.29148799,53.29684820
39.48370497,88.29545455,53.26929674
39.51618782,88.29491852,53.26940395
39.50879074,88.27015437,53.30060034
39.49088765,88.25525300,53.30199400
39.49528302,88.22963122,53.30424528
39.48574185,88.18857204,53.27690823
39.51393654,88.21676672,53.27615780
39.53301887,88.23349057,53.28730703
39.56946827,88.23799314,53.28859348
39.57600772,88.27798027,53.31850343
39.59058748,88.30713979,53.29170240
39.59273156,88.35323756,53.34959262
39.56978988,88.38304031,53.32750858
39.58651372,88.42141938,53.35023585
39.57075472,88.43010292,53.33983705
39.54759863,88.47105489,53.35677530
39.50718268,88.53848628,53.32300600
39.52165523,88.57525729,53.37778731
39.50471698,88.60763293,53.38850772
39.51286449,88.63700686,53.43889365
39.51661664,88.68964408,53.45636792
39.53698542,88.75268010,53.46215695
39.51447256,88.79620497,53.52605060
39.52036878,88.84198113,53.49957118
39.40651801,88.80831904,53.41252144
39.25375214,88.65748285,53.32472127
39.22384220,88.54073756,53.25836192
39.25879074,88.51993997,53.27594340
39.29792024,88.50396655,53.30092196
39.33726415,88.50343053,53.30338765
39.36824614,88.50268010,53.32257719
39.37521441,88.47448542,53.33554889
39.39815609,88.48606346,53.30102916
39.40330189,88.46119211,53.28151801
39.38132504,88.42463551,53.30628216
39.38357633,88.39129503,53.31110635
39.38421955,88.38829331,53.29867067
39.41327187,88.40791166,53.30027873
39.44339623,88.44318182,53.31903945
39.47030446,88.46430103,53.35688250
39.48810034,88.51082762,53.35581046
39.47716552,88.53248285,53.34787736
39.48274014,88.57686535,53.37660806
39.46751715,88.57965266,53.36031304
39.48595626,88.61417238,53.38025300
39.46237136,88.65533877,53.42592196
39.45186535,88.69286021,53.46108491
39.42945969,88.77186964,53.43353345
39.45904803,88.79459691,53.44596913
39.45347341,88.84391081,53.48434820
39.46623070,88.89011578,53.49903516
39.43235420,88.93621355,53.50546741
39.43063894,89.00075043,53.52090480
39.41702401,89.04716981,53.54824185
39.36996141,89.08093911,53.53183962
39.26361492,88.97330617,53.42141938
39.09884220,88.80746141,53.30102916
39.08190395,88.68096055,53.29331046
39.13636364,88.64751286,53.27744425
39.22427101,88.62092624,53.30510292
39.23970840,88.61749571,53.29502573
39.28119640,88.57836621,53.33458405
39.28055317,88.54234563,53.26575901
39.30563894,88.52176244,53.27840909
39.31721698,88.46773156,53.33308319
39.31410806,88.41144940,53.29309605
39.33115352,88.39590480,53.29534734
39.33565609,88.37896655,53.26897513
39.36878216,88.38893654,53.23992281
39.40941252,88.39976415,53.27755146
39.41423671,88.42795883,53.30553173
39.45229417,88.46108491,53.36202830
39.45743997,88.48274014,53.34165952
39.47630789,88.48617067,53.38454117
39.46119211,88.50686106,53.35741852
39.47405660,88.53945111,53.36385077
39.48263293,88.58168954,53.39365352
39.45583190,88.59712693,53.42517153
39.41187822,88.60999142,53.32032590
39.44811321,88.66916810,53.43246141
39.46012007,88.70797599,53.45540309
39.44114494,88.73166810,53.45701115
39.42538593,88.74742710,53.41509434
39.42452830,88.80531732,53.46162093
39.42624357,88.85999142,53.45497427
39.44264580,88.95486707,53.52733705
39.40426672,89.01404374,53.51211407
39.21676672,88.89408233,53.33704974
39.07643654,88.71451544,53.31550172
39.06132075,88.56346484,53.21740995
39.11942539,88.51265009,53.20711835
39.18128216,88.48831475,53.24796312
39.22341338,88.48070326,53.25986278
39.28194683,88.43117496,53.25107204
39.28719983,88.37896655,53.22695111
39.32858062,88.34144511,53.28977273
39.33512007,88.30102916,53.25943396
39.36213551,88.26801029,53.23456261
39.35602487,88.23059605,53.24474700
39.35591767,88.18031732,53.19082333
39.40062178,88.17249142,53.19371784
39.42753002,88.19446827,53.18610635
39.45529588,88.22502144,53.23445540
39.47534305,88.23756432,53.23949400
39.48274014,88.24817753,53.27154803
39.47266295,88.28205403,53.29406089
39.48788593,88.31378645,53.26725986
39.47834477,88.33168954,53.28773585
39.48327616,88.35698971,53.26372213
39.44682676,88.41123499,53.28666381
39.45551029,88.42056175,53.30413808
39.46751715,88.45165094,53.34037307
39.45411664,88.50192967,53.35634648
39.48820755,88.53473413,53.37521441
39.47534305,88.58083190,53.37521441
39.45647513,88.61963979,53.43117496
39.47105489,88.68524871,53.44018010
39.47652230,88.76361492,53.50353774
39.45486707,88.79513293,53.43728559
39.36084906,88.73391938,53.39751286
39.15941252,88.58522727,53.24646226
39.14569039,88.43664237,53.18406947
39.19425386,88.39815609,53.18739280
39.24603345,88.36653087,53.20786878
39.28687822,88.34283877,53.23756432
39.31024871,88.33640652,53.24335334
39.31518010,88.29824185,53.19018010
39.35002144,88.27304889,53.23252573
39.36084906,88.26586621,53.17667238
39.36706690,88.21740995,53.22341338
39.34176672,88.20819039,53.17131218
39.37735849,88.18567753,53.22963122
39.40490995,88.18171098,53.23123928
39.43953688,88.20197256,53.26779588
39.46022727,88.22287736,53.24496141
39.48488422,88.22930961,53.26725986
39.47898799,88.26114923,53.24935678
39.47866638,88.28098199,53.24903516
39.48070326,88.31046312,53.27530017
39.47191252,88.33426244,53.28194683
39.43428388,88.36288593,53.31614494
39.44350343,88.38454117,53.30413808
39.44425386,88.39686964,53.29052316
39.44018010,88.45175815,53.31346484
39.46494425,88.47094768,53.35902659
39.45894082,88.52069039,53.37146226
39.45915523,88.55285163,53.35816895
39.46687393,88.62939537,53.36996141
39.46376501,88.68503431,53.43782161
39.41477273,88.69007290,53.43685678
39.22148370,88.53709262,53.20926244
39.11738851,88.37960978,53.15555317
39.16423671,88.30403087,53.12628645
39.23027444,88.28687822,53.16959691
39.29920669,88.27605060,53.16970412
39.33533448,88.25364494,53.22469983
39.33361921,88.24506861,53.21891081
39.33865780,88.23295455,53.23123928
39.36513722,88.22255575,53.20668954
39.36771012,88.18417667,53.20518868
39.37424957,88.15834048,53.17034734
39.37435678,88.13443396,53.22405660
39.39451115,88.14858491,53.20690395
39.42013293,88.16713122,53.24646226
39.44457547,88.19135935,53.25568182
39.45733276,88.22877358,53.27572899
39.44532590,88.23306175,53.24099485
39.45293739,88.26104202,53.23402659
39.45368782,88.28816467,53.27358491
39.44243139,88.33651372,53.30563894
39.41434391,88.36653087,53.22930961
39.38389794,88.41048456,53.23810034
39.38754288,88.42956690,53.26940395
39.39558319,88.46526587,53.30703259
39.40298027,88.51725986,53.33672813
39.38336192,88.56196398,53.30403087
39.43953688,88.62392796,53.37585763
39.41873928,88.66380789,53.39193825
39.41402230,88.71869640,53.39965695
39.40705403,88.77519297,53.43728559
39.35656089,88.81325043,53.39815609
39.16273585,88.67924528,53.24635506
39.05703259,88.47791595,53.10849057
39.08308319,88.38432676,53.18085334
39.12692967,88.34626930,53.17409949
39.16434391,88.31014151,53.19007290
39.22180532,88.27433533,53.19178816
39.23220412,88.22062607,53.17474271
39.26629503,88.20025729,53.12349914
39.28666381,88.14279588,53.14022298
39.29427530,88.12017581,53.17742281
39.28494854,88.07332762,53.13486278
39.29427530,88.07343482,53.13496998
39.31207118,88.03119640,53.09273156
39.34605489,88.02337050,53.10098628
39.38271870,88.04438250,53.14601201
39.39644082,88.08147513,53.14579760
39.41552316,88.05939108,53.17109777
39.39879931,88.09498285,53.15415952
39.40480274,88.13207547,53.20240137
39.40383791,88.15726844,53.18342624
39.40437393,88.16809605,53.21033448
39.38271870,88.23241852,53.16016295
39.38121784,88.27465695,53.18803602
39.39719125,88.31550172,53.21858919
39.39601201,88.35227273,53.24764151
39.38261149,88.40405232,53.26790309
39.38786449,88.44532590,53.31775300
39.38003859,88.50546741,53.28591338
39.37081904,88.52240566,53.30392367
39.34680532,88.54448971,53.31228559
39.35548885,88.64193825,53.33126072
39.34519726,88.69982847,53.37178388
39.23016724,88.63046741,53.34744854
39.01650943,88.45047170,53.14665523
39.02144082,88.30145798,53.12371355
39.08040309,88.23220412,53.10291595
39.14290309,88.20765437,53.11653087
39.20250858,88.18985849,53.16219983
39.21065609,88.15533877,53.13325472
39.21076329,88.05467410,53.12006861
39.23295455,88.05392367,53.11009863
39.26715266,88.04716981,53.11835334
39.28237564,87.99828473,53.05360206
39.30253002,87.96655232,53.13443396
39.30510292,87.92088336,53.13293310
39.33008148,87.92141938,53.11074185
39.36181389,87.94693396,53.08243997
39.38743568,87.94854202,53.07011149
39.37607204,87.98456261,53.09455403
39.40919811,88.00525300,53.09787736
39.41412950,88.03655660,53.11352916
39.41241424,88.04513293,53.15662521
39.38421955,88.07997427,53.16723842
39.40051458,88.09519726,53.17281304
39.40415952,88.13572041,53.21569468
39.39225986,88.16798885,53.20400943
39.37800172,88.20969125,53.21097770
39.37896655,88.23574185,53.20443825
39.37178388,88.27487136,53.25450257
39.37178388,88.34433962,53.23349057
39.39236707,88.40373070,53.30017153
39.39054460,88.46280017,53.28505575
39.39376072,88.48981561,53.28441252
39.35516724,88.52969554,53.29899228
39.20551029,88.38947256,53.18149657
39.03655660,88.14440395,53.07665094
39.07665094,88.12939537,53.09380360
39.12532161,88.09530446,53.06335763
39.20883362,88.06903945,53.11470840
39.24453259,88.06378645,53.09766295
39.26672384,88.03044597,53.09712693
39.27583619,88.03098199,53.09444683
39.31775300,88.02208405,53.13036021
39.29663379,87.99024443,53.11052744
39.30831904,87.96012007,53.08018868
39.31475129,87.91337907,53.08383362
39.35784734,87.92474271,53.10784734
39.33479846,87.93449828,53.10280875
39.37832333,87.93471269,53.11867496
39.41884648,87.95229417,53.12124786
39.43439108,88.00578902,53.17753002
39.43053173,88.02680103,53.16659520
39.40801887,88.03987993,53.17088336
39.35130789,88.08436964,53.09316038
39.36996141,88.10709691,53.17592196
39.39912093,88.13882933,53.15448113
39.38882933,88.16177101,53.17334906
39.37692967,88.21440823,53.15265866
39.38765009,88.27058319,53.21805317
39.38250429,88.29845626,53.24013722
39.38432676,88.35645369,53.25761149
39.37307033,88.42302744,53.29545455
39.37253431,88.45165094,53.27476415
39.37360635,88.51318611,53.30778302
39.32257719,88.53677101,53.28226844
39.14697684,88.42849485,53.15834048
39.04942110,88.23895798,53.06335763
39.04470412,88.10538165,53.02712264
39.10774014,88.04470412,53.03441252
39.18235420,88.02090480,53.04256003
39.19500429,88.00568182,53.09165952
39.21140652,87.96290738,53.03623499
39.25407376,87.90458834,53.06732419
39.27337050,87.86192110,53.05403087
39.29138079,87.82054031,53.01479417
39.28494854,87.82268439,52.99271012
39.29159520,87.75921955,52.98692110
39.34219554,87.74099485,52.98970840
39.37253431,87.74753431,53.01683105
39.41327187,87.75804031,53.03977273
39.45647513,87.77444254,53.11706690
39.46204974,87.81024871,53.08962264
39.44607633,87.83501286,53.09852058
39.46065609,87.89783448,53.10173671
39.40866209,87.93160377,53.08319039
39.40019297,87.97244854,53.14611921
39.43321184,87.98488422,53.16134220
39.44382504,88.02808748,53.13336192
39.43771441,88.06850343,53.14654803
39.44489708,88.12371355,53.17581475
39.43106775,88.18900086,53.17806604
39.42388508,88.24013722,53.25428816
39.42034734,88.28612779,53.23488422
39.41316467,88.34519726,53.25664666
39.41316467,88.37843053,53.30102916
39.39140223,88.43728559,53.28591338
39.39065180,88.49142367,53.31346484
39.25857633,88.42967410,53.21848199
39.08061750,88.20861921,53.09069468
39.08286878,88.08458405,53.04599057
39.12403516,88.04063036,53.03870069
39.19521870,88.00932676,53.05949828
39.26908233,87.97298456,53.10934820
39.30853345,87.93503431,53.13722127
39.33576329,87.91895369,53.08233276
39.34669811,87.88228988,53.10934820
39.35999142,87.86084906,53.08104631
39.35645369,87.81936106,53.05285163
39.40147942,87.78891509,53.02840909
39.42324185,87.76222127,53.05338765
39.44489708,87.72662950,53.03773585
39.45497427,87.73134648,53.05145798
39.46601630,87.76447256,53.09894940
39.48788593,87.78805746,53.06807461
39.50278731,87.82568611,53.09048027
39.50600343,87.86170669,53.04909949
39.49399657,87.91016295,53.14172384
39.51490137,87.92484991,53.12017581
39.49635506,87.93674957,53.15673242
39.49710549,88.00268010,53.18385506
39.51286449,88.02165523,53.17753002
39.48863636,88.08469125,53.18246141
39.45969125,88.12907376,53.19811321
39.47759434,88.17892367,53.25375214
39.47073328,88.24303173,53.29856346
39.49560463,88.28827187,53.28484134
39.47577187,88.33597770,53.32975986
39.47298456,88.39837050,53.31067753
39.45015009,88.44307461,53.33737136
39.28183962,88.36974700,53.23574185
39.14322470,88.15737564,53.07182676
39.13572041,88.03387650,53.05810463
39.20057890,87.97866638,53.06764580
39.30070755,87.99560463,53.11138508
39.35977702,87.99013722,53.09240995
39.35420240,87.94168096,53.06432247
39.39708405,87.92195540,53.11856775
39.39258148,87.93503431,53.10270154
39.40683962,87.90726844,53.11588765
39.39140223,87.88518439,53.05478130
39.39751286,87.84369640,53.06989708
39.42903087,87.81089194,53.11513722
39.46312178,87.77808748,53.09005146
39.49185249,87.79202401,53.10999142
39.49967839,87.80821184,53.08672813
39.51232847,87.82557890,53.10430961
39.47362779,87.86406518,53.05853345
39.50632504,87.90190823,53.08972985
39.52347770,87.94972127,53.14333190
39.50879074,87.97641509,53.10527444
39.47941681,88.02337050,53.21612350
39.48434820,88.04995712,53.23584906
39.47201973,88.08458405,53.19478988
39.48070326,88.11449400,53.20840480
39.46794597,88.15062178,53.18256861
39.44779160,88.19500429,53.19243139
39.44361063,88.24807033,53.26136364
39.44897084,88.28194683,53.21826758
39.40051458,88.28966552,53.25750429
39.18921527,88.12253431,53.08951544
39.14708405,87.94275300,52.99914237
39.17774443,87.85913379,53.03494854
39.21901801,87.82643654,53.02197684
39.32150515,87.78205403,53.00203688
39.37607204,87.73284734,52.98820755
39.39451115,87.72512864,53.01093482
39.40984134,87.67913808,53.02069039
39.41198542,87.67870926,53.00268010
39.40008576,87.65244425,53.01265009
39.42506432,87.60066467,53.00546741
39.43096055,87.56260720,52.98713551
39.47309177,87.56057033,52.96901801
39.50203688,87.57579331,53.01018439
39.53334048,87.59616209,52.98960120
39.50621784,87.59090909,53.00257290
39.50546741,87.62532161,53.03291166
39.51822470,87.64579760,53.02315609
39.48456261,87.67409949,53.03730703
39.50032161,87.69264580,53.06635935
39.48767153,87.70658233,53.03569897
39.47373499,87.74281732,53.05285163
39.47030446,87.80628216,53.04363208
39.45293739,87.84358919,53.08994425
39.47234134,87.93031732,53.07761578
39.47555746,87.96976844,53.10763293
39.44564751,88.00182247,53.11974700
39.45325901,88.07482847,53.17109777
39.43674957,88.13872213,53.19768439
39.41498714,88.18085334,53.12446398
39.23777873,88.05789022,53.12028302
39.10259434,87.81893225,52.96472985
39.08994425,87.68299743,52.84316038
39.16305746,87.62124786,52.87253431
39.29331046,87.55617496,52.88700686
39.33919383,87.51715266,52.89772727
39.35495283,87.46108491,52.87446398
39.38947256,87.42206261,52.87575043
39.42292024,87.35473842,52.86631647
39.40716123,87.30917667,52.85763293
39.42216981,87.28001715,52.85120069
39.42892367,87.23466981,52.83694254
39.46644511,87.22030446,52.87296312
39.48102487,87.21108491,52.88368353
39.51565180,87.20497427,52.88250429
39.53998714,87.22051887,52.84916381
39.54641938,87.23209691,52.89225986
39.53334048,87.26597341,52.89225986
39.53012436,87.29641938,52.86117067
39.50160806,87.33501286,52.83501286
39.50353774,87.34551887,52.85816895
39.52240566,87.36374357,52.91841767
39.50546741,87.41434391,52.89804889
39.52090480,87.46387221,52.95508148
39.50750429,87.49978559,52.95840480
39.50160806,87.56850343,52.97201973
39.49828473,87.62242710,52.98370497
39.49324614,87.68471269,53.00396655
39.48081046,87.74796312,53.07879503
39.45572470,87.78398370,53.02776587
39.43128216,87.86267153,53.08115352
39.34198113,87.83812178,53.04845626
39.15083619,87.61417238,52.83629931
39.14954974,87.44135935,52.76618782
39.21773156,87.33737136,52.81743139
39.31710978,87.32268439,52.85784734
39.38475557,87.29620497,52.84251715
39.39665523,87.26929674,52.81003431
39.40726844,87.19800600,52.80821184
39.41691681,87.19050172,52.83265437
39.43289022,87.17409949,52.83554889
39.45250858,87.11117067,52.82107633
39.45068611,87.08040309,52.78902230
39.44607633,87.03634220,52.73852916
39.51168525,87.02262007,52.78977273
39.53323328,87.00514580,52.78259005
39.52111921,87.04084477,52.75460978
39.55831904,87.06753859,52.80231561
39.55295883,87.09283877,52.79138079
39.55853345,87.12521441,52.82632933
39.50825472,87.11867496,52.74303173
39.52401372,87.16616638,52.81839623
39.51232847,87.20336621,52.85774014
39.53183962,87.22566467,52.83415523
39.54867067,87.27036878,52.86149228
39.54105918,87.30413808,52.88368353
39.51747427,87.37553602,52.89826329
39.51951115,87.40673242,52.93825043
39.51629503,87.45304460,52.94832762
39.50911235,87.50289451,52.96322899
39.49078045,87.56024871,52.97748714
39.39590480,87.52776587,52.94543310
39.21162093,87.33233276,52.77572899
39.22512864,87.15394511,52.75536021
39.27980274,87.09927101,52.73906518
39.35077187,87.04030875,52.73970840
39.38765009,87.04481132,52.77229846
39.40147942,87.01876072,52.72888079
39.41638079,86.99120926,52.72705832
39.44918525,86.98820755,52.75836192
39.46001286,86.95100772,52.73123928
39.46076329,86.92109777,52.74292453
39.45754717,86.90973413,52.74078045
39.48499142,86.92624357,52.72084048
39.49260292,86.90919811,52.69178816
39.50814751,86.92795883,52.71526587
39.51082762,86.96001286,52.74603345
39.51018439,86.98638508,52.75075043
39.51779588,86.99313894,52.72898799
39.52251286,87.04180961,52.78173242
39.52487136,87.07590051,52.76565180
39.48702830,87.14569039,52.83951544
39.51307890,87.19103774,52.80638937
39.48970840,87.21740995,52.82847341
39.48767153,87.25182247,52.82965266
39.50246569,87.29063036,52.88968696
39.49485420,87.34005146,52.93439108
39.46162093,87.40566038,52.96526587
39.47319897,87.46891081,52.94746998
39.47137650,87.55135077,53.00868353
39.42795883,87.64108062,53.00643225
39.39729846,87.67988851,52.96933962
39.24142367,87.60012864,52.85784734
39.09798456,87.41959691,52.81625214
39.14311750,87.25160806,52.74646226
39.22180532,87.20272298,52.75611063
39.27701544,87.17109777,52.76972556
39.31646655,87.12328473,52.80338765
39.32332762,87.08662093,52.75621784
39.33168954,87.07590051,52.75171527
39.35473842,87.04191681,52.73617067
39.37103345,87.03205403,52.72866638
39.39247427,87.00568182,52.74410377
39.38475557,86.95443825,52.72480703
39.42967410,86.96526587,52.74549743
39.44972127,86.96580189,52.74410377
39.46001286,86.97909520,52.75353774
39.46901801,87.00846913,52.76468696
39.48231132,87.03612779,52.80092196
39.47512864,87.06432247,52.80381647
39.46966123,87.09273156,52.80585334
39.49217410,87.14268868,52.84830617
39.44618353,87.19939966,52.78859348
39.46569468,87.24228130,52.79438250
39.46355060,87.26779588,52.82354202
39.44822041,87.30713979,52.90533877
39.45358062,87.38947256,52.89118782
39.44918525,87.44939966,52.91616638
39.42795883,87.51329331,52.96054889
39.40673242,87.55188679,52.98713551
39.39987136,87.60934820,52.99442539
39.39290309,87.66777444,52.99860635
39.37564322,87.76029160,53.00171527
39.36695969,87.83115352,53.07043310
39.28698542,87.83887221,53.02626501
39.05939108,87.61771012,52.84691252
39.02144082,87.47191252,52.75021441
39.06024871,87.41702401,52.81174957
39.15791166,87.41713122,52.82665094
39.21719554,87.39536878,52.89601201
39.23381218,87.38518439,52.85559605
39.25439537,87.35859777,52.81078473
39.26704545,87.32322041,52.83801458
39.27079760,87.32289880,52.83769297
39.25407376,87.27272727,52.73713551
39.26329331,87.24185249,52.78366209
39.28141081,87.21258576,52.74903516
39.29974271,87.24271012,52.78001715
39.34423242,87.25739708,52.77304889
39.33286878,87.26618782,52.81550172
39.33147513,87.26715266,52.81710978
39.34208834,87.32021870,52.84701973
39.32482847,87.33018868,52.78666381
39.32300600,87.41048456,52.85280875
39.33319039,87.44339623,52.88679245
39.32054031,87.47898799,52.88743568
39.32611492,87.50235849,52.91573756
39.27508576,87.54566895,52.92388508
39.27315609,87.58704974,52.89622642
39.26361492,87.63261149,52.92785163
39.26039880,87.69157376,52.93192539
39.27444254,87.74356775,52.92967410
39.27530017,87.80124357,53.01929674
39.27605060,87.85302316,53.01104202
39.25975557,87.91713122,53.03719983
39.17292024,87.93149657,52.99367496
38.99303173,87.74689108,52.84466123
38.95154374,87.64150943,52.79266724
38.96333619,87.58812178,52.78752144
39.03087479,87.57933105,52.84669811
39.10527444,87.55574614,52.83319039
39.10109348,87.55692539,52.88153945
39.11331475,87.54920669,52.81035592
39.13057461,87.55896226,52.80874786
39.11792453,87.53259005,52.81432247
39.11234991,87.52165523,52.82139794
39.11695969,87.50139365,52.83801458
39.12446398,87.47373499,52.83930103
39.12424957,87.45358062,52.82836621
39.17120497,87.47201973,52.82086192
39.16316467,87.51693825,52.85077187
39.18096055,87.53451973,52.88293310
39.18492710,87.56271441,52.86996141
39.18449828,87.59551887,52.92077616
39.12853774,87.64483276,52.82129074
39.14654803,87.67249142,52.87489280
39.15512436,87.68921527,52.93792882
39.14140223,87.73188250,52.90126501
39.13357633,87.76200686,52.90866209
39.13979417,87.81861063,52.95325901
39.13336192,87.85355918,52.98156089
39.12853774,87.89676244,52.93235420
39.11524443,87.96687393,52.96644511
39.10623928,88.00954117,53.01254288
39.12714408,88.06110635,53.00686106
39.08404803,88.08747856,53.01479417
38.88143225,87.95690395,52.86449400
38.80081475,87.80574614,52.81174957
38.79234563,87.74474700,52.84037307
38.88239708,87.69286021,52.83115352
38.93449828,87.67077616,52.83158233
38.97180532,87.66434391,52.83394082
38.98359777,87.65019297,52.84616209
39.00353774,87.62489280,52.78805746
39.00546741,87.61545883,52.81978988
39.02572899,87.60698971,52.80124357
39.01565180,87.58790738,52.83469125
39.02583619,87.57750858,52.79963551
39.04009434,87.55874786,52.81432247
39.07311321,87.58619211,52.83233276
39.08994425,87.60345197,52.85237993
39.12264151,87.61535163,52.90694683
39.12103345,87.64418954,52.93128216
39.13250429,87.68953688,52.90180103
39.09744854,87.71623070,52.92270583
39.04524014,87.73820755,52.87478559
39.07772298,87.78805746,52.89397513
39.10720412,87.81024871,52.97512864
39.08812178,87.85698971,52.94125214
39.08093911,87.91563036,52.98552744
39.09873499,87.95207976,53.00546741
39.09058748,88.02412093,53.04020154
39.10548885,88.05853345,53.06217839
39.08565609,88.13561321,53.07772298
39.08672813,88.17292024,53.11503002
39.09626930,88.22255575,53.15265866
39.04620497,88.26404374,53.09380360
38.91680961,88.18503431,53.03644940
38.75611063,88.00718268,52.86824614
38.69864923,87.85752573,52.78870069
38.75375214,87.85602487,52.81743139
38.81882504,87.84133791,52.91380789
38.88132504,87.78527015,52.83329760
38.88668525,87.74839194,52.85988422
38.88818611,87.72566467,52.85237993
38.90876930,87.70272298,52.84766295
38.92870926,87.67270583,52.81228559
38.93910806,87.66252144,52.84090909
38.92945969,87.61921098,52.83790738
38.95722556,87.59165952,52.79020154
38.96097770,87.60012864,52.80274443
38.99271012,87.63936535,52.81410806
39.02755146,87.65683962,52.86953259
39.04974271,87.66809605,52.88357633
39.04802744,87.65866209,52.85162950
39.04384648,87.69393225,52.87253431
39.01843911,87.78130360,52.86599485
39.05874786,87.81217839,52.96226415
39.06057033,87.84380360,52.96944683
39.03151801,87.88357633,52.97577187
39.05649657,87.92742281,52.99024443
39.05360206,87.95111492,52.99163808
39.03344768,88.02122642,53.02487136
39.00278731,88.06582333,53.04759863
39.02101201,88.14236707,53.06217839
39.02819468,88.18278302,53.04899228
39.01822470,88.21848199,53.02572899
39.02144082,88.27787307,53.11728130
38.99764151,88.32268439,53.07590051
38.91348628,88.33951544,53.10002144
38.71033448,88.15566038,52.91680961
38.68782161,88.00857633,52.86427959
38.70090051,87.95197256,52.86642367
38.78709262,87.95797599,52.89987136
38.84584048,87.93953688,52.92409949
38.85034305,87.95840480,52.90909091
38.86074185,87.90555317,52.95079331
38.86524443,87.88689966,52.92184820
38.88464837,87.86449400,52.90587479
38.87285592,87.85656089,52.92409949
38.87746569,87.82279160,52.88389794
38.90105060,87.80263722,52.88840051
38.93985849,87.81871784,52.86288593
38.95583190,87.83512007,52.90094340
38.96955403,87.84712693,52.92152659
38.98863636,87.87650086,52.93803602
38.99560463,87.90105060,52.92334906
38.93771441,87.95358062,52.92206261
38.96955403,87.98370497,52.95733276
38.94221698,87.99689108,52.91927530
38.96076329,88.02465695,52.97748714
38.94328902,88.06378645,52.98509863
38.96987564,88.09444683,52.99946398
38.96397942,88.11771012,53.01265009
38.96397942,88.16680961,53.03151801
38.93964408,88.21665952,53.04577616
38.94307461,88.25053602,53.07364923
38.93128216,88.27969554,53.05392367
38.93396226,88.36342196,53.12800172
38.90287307,88.39408233,53.09755575
38.78462693,88.30521012,53.00075043
38.65544597,88.17538593,52.94554031
38.62017581,88.11674528,52.84852058
38.67324185,88.09927101,52.90458834
38.74356775,88.09455403,52.90887650
38.79363208,88.08737136,52.92356346
38.79116638,88.08426244,52.92624357
38.80585334,88.08544168,52.97652230
38.78795026,88.09948542,52.96397942
38.80328045,88.09937822,52.95872642
38.81024871,88.10162950,52.98349057
38.80263722,88.09680532,52.95872642
38.81014151,88.09873499,52.96258576
38.83629931,88.12918096,52.99003002
38.85270154,88.13186106,52.98713551
38.86481561,88.14547599,53.02476415
38.87714408,88.18053173,53.03966552
38.88078902,88.23542024,53.03366209
38.87467839,88.28355489,53.04148799
38.89912093,88.31871784,53.08651372
38.88068182,88.37853774,53.10173671
38.85966981,88.42592196,53.15362350
38.85838336,88.47523585,53.14054460
38.84444683,88.53719983,53.11653087
38.87103345,88.59401801,53.18621355
38.83340480,88.64386792,53.21162093
38.81946827,88.70368782,53.15415952
38.80971269,88.74024443,53.19157376
38.80649657,88.76597341,53.24860635
38.68203259,88.71998285,53.17195540
38.51104202,88.55113636,53.02047599
38.46805317,88.37714408,52.92753002
38.54041595,88.36095626,53.01297170
38.59551887,88.35731132,53.01018439
38.64290309,88.35988422,53.03419811
38.66155660,88.32300600,53.01811750
38.66091338,88.28291166,53.00996998
38.69007290,88.26768868,52.98102487
38.68674957,88.25664666,53.00686106
38.68192539,88.21751715,52.99045883
38.69093053,88.19328902,52.97459262
38.69521870,88.18728559,52.98424099
38.71869640,88.19854202,52.97212693
38.74421098,88.22984563,53.06818182
38.75000000,88.24914237,53.04095197
38.77390652,88.25332333,53.06528731
38.76179245,88.31260720,52.98906518
38.75010720,88.32086192,53.00696827
38.72855918,88.33683533,53.02101201
38.67881647,88.37071184,53.03173242
38.70561750,88.45433105,53.08619211
38.71054889,88.47212693,53.09691252
38.74195969,88.55370926,53.16756003
38.72223413,88.61545883,53.13625643
38.71740995,88.64815609,53.20368782
38.72930961,88.69264580,53.21280017
38.69296741,88.75364494,53.20647513
38.68932247,88.81132075,53.23048885
38.66777444,88.85452401,53.18428388
38.65941252,88.90319468,53.22459262
38.58051029,88.85473842,53.18599914
38.37725129,88.66027015,53.00804031
38.30810463,88.51350772,52.95883362
38.37285592,88.45240137,52.98370497
38.42860206,88.41402230,52.95776158
38.45658233,88.41069897,52.97394940
38.46858919,88.38111063,52.97180532
38.49292453,88.36192110,52.95990566
38.53784305,88.32729417,52.96365780
38.55949828,88.29834906,52.97566467
38.52036878,88.24699828,52.94832762
38.55113636,88.18750000,52.90834048
38.55585334,88.16498714,52.88325472
38.57890223,88.19961407,52.95733276
38.58479846,88.21365780,52.96451544
38.62553602,88.24603345,52.98359777
38.62768010,88.22480703,52.94950686
38.64000858,88.23584906,52.95390223
38.65834048,88.28291166,53.00096484
38.67474271,88.33533448,52.99635506
38.59187393,88.42270583,52.95593911
38.62017581,88.46472985,53.01018439
38.61610206,88.48445540,53.07686535
38.62596484,88.49539022,53.10173671
38.64290309,88.52111921,53.08029588
38.61234991,88.58426244,53.10784734
38.62146226,88.63625643,53.13282590
38.60634648,88.66981132,53.06946827
38.57204117,88.74249571,53.15051458
38.57665094,88.78312607,53.16756003
38.57590051,88.82783019,53.18953688
38.57086192,88.87296312,53.20808319
38.53870069,88.90748285,53.20358062
38.34669811,88.80102916,53.02958834
38.19939966,88.64022298,52.91938250
38.22780875,88.57579331,52.92892367
38.27605060,88.55756861,52.94457547
38.34884220,88.56475129,52.97920240
38.35430961,88.54599057,52.96472985
38.39965695,88.52701544,52.99421098
38.39247427,88.52219125,53.02004717
38.39633362,88.51318611,52.99689108
38.40083619,88.49539022,52.97309177
38.39558319,88.45819039,52.94103774
38.40062178,88.42849485,52.99174528
38.43160377,88.44682676,52.99228130
38.44554031,88.43439108,53.00385935
38.47587907,88.46129931,52.97287736
38.50321612,88.48177530,52.97662950
38.51350772,88.50214408,53.00064322
38.48027444,88.53623499,53.02101201
38.45604631,88.57761578,53.03087479
38.47920240,88.59240995,53.06003431
38.47748714,88.63679245,53.06732419
38.46665952,88.64547599,53.06250000
38.46087050,88.66648799,53.03098199
38.45165094,88.71280017,53.06228559
38.45776158,88.74871355,53.14322470
38.47137650,88.81207118,53.15383791
38.43535592,88.89075901,53.13904374
38.42399228,88.93364065,53.12253431
38.44264580,88.93599914,53.17056175
38.44854202,89.00621784,53.13100343
38.42956690,89.05992710,53.22244854
38.36792453,89.03580617,53.15866209
38.12435678,88.85441681,52.97234134
38.08383362,88.77722985,52.96826758
38.11374357,88.75139365,52.98981561
38.18653516,88.75900515,53.03816467
38.25836192,88.74978559,53.04052316
38.26929674,88.75407376,53.03987993
38.27647942,88.74324614,53.02669383
38.26918954,88.75032161,53.02026158
38.27058319,88.73456261,53.04609777
38.25675386,88.71430103,52.97480703
38.27197684,88.70036449,52.98810034
38.25364494,88.68889365,52.96612350
38.29127358,88.70486707,53.00460978
38.30789022,88.71097770,53.00578902
38.30553173,88.74292453,53.00750429
38.33168954,88.76736707,53.01715266
38.30939108,88.80488851,53.02851630
38.28623499,88.85420240,53.03216123
38.32075472,88.88314751,53.08040309
38.28291166,88.88861492,53.05864065
38.28183962,88.91734563,53.10559605
38.28902230,88.93953688,53.11878216
38.30210120,88.99356775,53.09777015
38.29695540,89.01179245,53.14236707
38.24989280,89.07386364,53.14483276
38.27776587,89.13153945,53.12703688
38.27572899,89.17988851,53.21783877
38.24271012,89.22984563,53.18331904
38.27776587,89.28741424,53.20229417
38.24496141,89.32279160,53.23188250
38.08308319,89.16327187,53.06142796
37.92978130,88.99989280,52.94521870
37.91638079,88.96183533,52.94103774
37.92420669,88.91691681,52.94393225
38.00954117,88.90533877,53.00053602
38.00085763,88.88850772,52.97169811
38.03752144,88.90458834,52.99442539
38.06678816,88.89397513,52.99346055
38.11331475,88.87189108,52.99967839
38.11181389,88.88261149,52.97802316
38.10516724,88.86503002,52.97309177
38.12596484,88.84015866,52.96730274
38.12135506,88.80038593,52.95475986
38.14279588,88.82032590,52.99871355
38.17838765,88.83554889,53.03730703
38.21258576,88.85345197,53.02026158
38.24142367,88.86020583,53.01457976
38.25235849,88.89451115,53.04459691
38.20733276,88.91016295,53.04952830
38.22416381,88.94371784,53.07322041
38.22116209,89.00761149,53.03784305
38.22630789,89.00568182,53.06828902
38.22159091,89.04834906,53.10966981
38.23102487,89.07643654,53.12189108
38.21387221,89.09873499,53.11674528
38.20583190,89.13614923,53.17066895
38.23424099,89.17206261,53.21215695
38.21998285,89.23499142,53.18953688
38.21998285,89.28430532,53.20947684
38.22673671,89.31357204,53.20894082
38.23917238,89.36846055,53.21258576
38.21269297,89.39429674,53.23434820
38.09927101,89.37478559,53.16509434
37.88807890,89.19918525,53.02358491
37.80574614,89.07418525,52.91723842
37.83276158,89.00021441,52.96526587
37.90212264,88.98938679,52.97244854
37.94939966,88.99120926,52.99228130
37.98241852,88.95068611,52.98113208
38.01382933,88.92399228,52.99667667
38.03473413,88.88765009,52.96333619
38.03494854,88.86042024,52.94060892
38.05317324,88.82096913,52.99378216
38.05360206,88.79052316,52.96612350
38.07043310,88.79063036,52.97888079
38.08704974,88.74163808,52.97855918
38.10774014,88.74281732,52.94521870
38.15619640,88.76447256,52.96022727
38.17238422,88.75214408,52.97062607
38.19221698,88.81614494,52.95079331
38.20218696,88.82161235,53.01736707
38.21601630,88.85988422,53.02219125
38.22630789,88.87296312,53.01189966
38.22802316,88.87853774,53.01683105
38.22459262,88.89354631,53.03355489
38.21172813,88.92292024,53.06314322
38.21204974,88.96312178,53.11385077
38.19757719,89.01061321,53.07986707
38.21730274,89.08565609,53.13604202
38.23456261,89.09841338,53.12671527
38.21505146,89.14215266,53.15373070
38.16798885,89.15233705,53.15469554
38.17184820,89.21537307,53.12060463
38.16069897,89.26876072,53.16198542
38.14268868,89.28977273,53.14826329
37.96451544,89.19114494,53.09123070
37.79180961,89.00278731,52.94575472
37.81914666,88.94114494,52.90576758
37.91412950,88.92527873,52.96108491
37.95722556,88.94671955,52.99303173
38.00150086,88.92753002,53.01543739
38.00739708,88.91069897,53.01940395
38.05177959,88.88947256,53.01876072
38.04363208,88.87360635,52.97159091
38.06078473,88.88132504,53.00246569
38.06625214,88.86878216,52.97834477
38.06528731,88.82021870,52.97480703
38.08351201,88.79577616,52.96001286
38.09509005,88.79920669,52.95593911
38.15072899,88.82611492,52.99785592
38.14536878,88.84433962,53.02294168
38.15801887,88.85891938,53.01972556
38.15641081,88.86159949,53.04534734
38.15662521,88.88561321,53.03998714
38.16756003,88.90469554,53.06185678
38.17088336,88.94425386,53.06174957
38.15040738,88.99496141,53.05713979
38.16680961,89.02401372,53.09905660
38.17024014,89.05488851,53.07504288
38.16477273,89.08587050,53.10645369
38.14493997,89.10613208,53.11856775
38.15598199,89.15726844,53.12703688
38.14536878,89.20454545,53.13379074
38.15984134,89.25675386,53.14118782
38.14751286,89.31625214,53.17088336
38.04084477,89.25460978,53.08436964
37.85452401,89.06936106,52.93192539
37.79470412,89.01511578,52.87553602
37.85548885,88.97662950,52.97577187
37.94264580,88.95765437,52.98960120
37.97930961,88.97502144,53.00589623
37.96698113,88.96097770,53.02444254
37.99474700,88.95808319,52.98595626
37.99313894,88.96140652,52.94811321
38.00889794,88.95593911,53.00225129
37.97330617,88.92120497,52.96858919
37.96451544,88.89869211,52.94929245
37.97770154,88.90373070,52.96440823
38.03687822,88.91916810,53.00257290
38.05939108,88.93503431,53.01672384
38.08629931,88.95358062,53.05306604
38.04234563,88.97266295,52.99024443
38.08844340,89.02583619,53.07086192
38.08972985,89.04599057,53.08629931
38.04170240,89.05413808,53.00696827
38.03945111,89.06946827,53.06174957
38.02615780,89.09626930,53.08126072
38.04170240,89.14762007,53.07900943
38.03870069,89.17892367,53.07879503
38.01843911,89.22727273,53.10141509
38.01758148,89.27401372,53.13743568
38.01436535,89.32311321,53.15866209
38.00900515,89.36084906,53.13293310
38.00428816,89.39108062,53.14108062
37.85506003,89.27530017,53.06046312
37.70636792,89.11674528,52.95293739
37.68664237,89.05006432,52.89804889
37.72748714,89.01243568,52.94961407
37.78269726,88.99496141,52.92570755
37.80746141,88.98992281,52.97362779
37.82204117,88.96462264,52.92624357
37.82772298,88.95100772,52.93964408
37.87349914,88.96633791,52.95947684
37.87596484,88.96816038,52.98509863
37.88164666,88.93396226,52.99549743
37.88271870,88.91295026,52.95411664
37.89461835,88.90533877,52.95658233
37.90866209,88.91981132,52.96355060
37.93664237,88.94907804,52.94671955
37.97105489,88.95626072,52.98306175
37.95486707,88.97952401,53.01661664
37.97459262,89.00268010,53.00975557
37.94843482,89.02347770,52.98488422
37.96580189,89.04427530,53.01147084
37.95829760,89.05842624,53.00460978
37.95958405,89.09530446,53.03912950
37.93932247,89.10913379,53.04073756
37.94822041,89.15190823,53.03912950
37.94822041,89.18835763,53.03677101
37.94007290,89.24967839,53.06957547
37.93246141,89.29309605,53.12006861
37.94103774,89.30810463,53.16123499
37.90555317,89.37789451,53.13861492
37.89429674,89.40480274,53.18289022
37.70733276,89.28409091,53.05638937
37.56464408,89.11503002,52.86738851
37.57536449,89.06250000,52.89118782
37.63368353,89.03462693,52.89569039
37.70304460,89.02894511,52.87457118
37.73413379,89.00900515,52.90137221
37.72834477,88.97255575,52.89686964
37.73520583,88.93632075,52.86835334
37.75536021,88.91252144,52.91595197
37.76275729,88.91284305,52.86931818
37.77551458,88.89665523,52.93460549
37.79320326,88.87017581,52.87124786
37.81292882,88.86009863,52.88904374
37.84819897,88.85570326,52.90158662
37.88668525,88.89997856,52.94093053
37.91927530,88.92999571,52.96858919
37.91970412,88.95551029,53.00460978
37.91455832,88.98274014,52.92720840
37.89461835,89.00696827,52.97094768
37.86449400,89.02358491,52.96612350
37.89011578,89.04749142,52.98788593
37.88979417,89.05553173,52.98927959
37.88421955,89.08083190,52.99871355
37.89997856,89.12253431,53.01468696
37.85623928,89.17334906,53.04406089
37.86159949,89.20894082,53.04942110
37.87639365,89.25782590,53.09380360
37.86996141,89.32536449,53.11717410
37.84551887,89.31764580,53.12639365
37.83447684,89.35184391,53.05767581
37.69189537,89.28859348,53.03023156
37.51222127,89.08726415,52.85656089
37.53151801,89.02444254,52.88850772
37.55049314,89.03141081,52.87960978
37.63089623,89.05885506,52.91391509
37.66091338,89.05499571,52.91219983
37.67131218,89.00943396,52.88979417
37.67795883,88.99871355,52.89215266
37.70390223,88.97448542,52.93953688
37.73595626,88.99817753,52.92206261
37.70743997,88.98038165,52.95379503
37.72641509,88.96397942,52.89386792
37.74228130,88.89665523,52.90030017
37.76554460,88.92828045,52.89333190
37.76693825,88.93138937,52.91059177
37.77851630,88.95883362,52.90887650
37.77294168,88.99185249,52.92216981
37.78816467,89.00557461,52.94725557
37.78162521,89.03398370,52.96558748
37.78698542,89.06807461,52.89869211
37.75375214,89.11610206,52.92013293
37.76415094,89.13464837,53.02680103
37.74957118,89.17324185,53.01136364
37.72780875,89.19929245,53.01575901
37.72009005,89.23874357,53.06014151
37.70819039,89.27980274,53.05445969
37.73992281,89.33168954,53.10506003
37.74088765,89.36974700,53.08930103
37.68664237,89.42828045,53.10774014
37.58790738,89.34669811,53.02701544
37.44929245,89.22630789,52.93942967
37.45518868,89.19575472,52.89751286
37.49614065,89.17216981,52.92152659
37.54481132,89.16873928,52.95711835
37.57665094,89.19564751,52.97394940
37.59305317,89.19082333,53.00643225
37.60077187,89.18374786,52.95004288
37.60591767,89.19511149,52.95154374
37.58629931,89.16348628,52.98188250
37.56378645,89.14676244,52.95122213
37.57343482,89.13218268,52.92699400
37.58351201,89.13861492,52.93299743
37.61481561,89.15169383,52.98274014
37.62253431,89.19800600,52.97244854
37.62918096,89.22073328,53.02090480
37.63882933,89.25589623,53.04813465
37.64118782,89.25996998,53.00160806
37.61449400,89.27680103,53.06518010
37.61460120,89.30263722,53.00375214
37.59058748,89.32515009,52.98145369
37.60473842,89.35859777,53.06614494
37.53162521,89.41584477,52.96258576
37.54909949,89.43310463,53.01114923
37.55971269,89.47823756,53.02090480
37.55671098,89.51018439,53.06978988
37.57086192,89.55928388,53.06228559
37.47491424,89.50793310,53.03430532
37.29727702,89.34208834,52.90791166
37.27894511,89.30660377,52.93138937
37.31410806,89.26672384,52.93417667
37.39644082,89.29009434,52.96226415
37.41734563,89.28119640,52.95808319
37.39965695,89.27036878,52.93417667
37.40555317,89.24496141,52.91605918
37.44093053,89.24217410,52.91155660
37.43546312,89.24678388,52.92838765
37.43342624,89.22566467,52.95679674
37.43342624,89.21322899,52.91241424
37.42474271,89.20218696,52.88657804
37.43857204,89.21580189,52.94586192
37.46976844,89.24871355,52.93653516
37.48745712,89.24839194,52.93985849
37.50278731,89.27422813,52.99785592
37.50310892,89.27990995,52.98466981
37.49581904,89.33115352,52.97459262
37.48134648,89.34283877,52.93674957
37.48595626,89.35302316,52.96580189
37.45358062,89.36846055,52.98852916
37.46280017,89.41284305,53.00439537
37.46033448,89.46376501,52.99892796
37.45894082,89.48745712,53.01876072
37.47030446,89.52047599,53.06700257
37.42452830,89.59348199,53.07439966
37.44189537,89.63464837,53.01650943
37.40158662,89.62156947,53.04438250
37.19135935,89.44907804,52.88003859
37.14429674,89.33812178,52.85184391
37.15244425,89.33083190,52.84777015
37.21623070,89.32407804,52.85581046
37.24056604,89.31110635,52.87564322
37.24581904,89.26683105,52.91262864
37.24989280,89.16605918,52.80521012
37.25686106,89.14129503,52.84584048
37.29609777,89.14172384,52.85891938
37.32493568,89.12253431,52.87274871
37.31024871,89.12542882,52.85570326
37.33233276,89.09005146,52.83726415
37.35559605,89.08029588,52.86138508
37.40641081,89.07750858,52.86631647
37.41745283,89.09777015,52.87735849
37.42442110,89.12789451,52.85838336
37.43707118,89.14333190,52.84787736
37.43471269,89.16756003,52.88411235
37.45915523,89.16927530,52.88561321
37.42688679,89.19639794,52.89794168
37.41863208,89.21816038,52.88561321
37.36985420,89.25450257,52.89043739
37.37457118,89.27744425,52.90222985
37.38507719,89.30981990,52.91873928
37.42227702,89.32557890,52.95036449
37.40405232,89.39654803,52.94693396
37.39472556,89.40994854,52.95754717
37.40051458,89.45304460,52.96548027
37.34176672,89.55703259,52.95926244
37.36835334,89.57397084,53.03623499
37.33490566,89.59305317,53.01543739
37.19661235,89.51479417,52.90994854
37.05521012,89.37017581,52.81185678
37.04298885,89.32643654,52.79277444
37.10227273,89.27251286,52.78773585
37.14815609,89.23456261,52.83619211
37.17924528,89.22105489,52.84798456
37.17324185,89.17174099,52.81089194
37.19157376,89.14397513,52.78891509
37.20593911,89.14011578,52.77862350
37.23970840,89.09326758,52.80145798
37.23091767,89.10098628,52.81582333
37.23992281,89.08147513,52.82096913
37.26533019,89.07922384,52.81464408
