R,G,B
73.33587050,58.82836621,63.66627358
73.27251286,58.82590051,63.67238422
73.53527015,58.97373499,63.92463551
73.67420669,59.07000429,63.94071612
73.70690395,59.07547170,63.90072899
73.66702401,59.11535163,63.95776158
73.69146655,59.18138937,63.94125214
73.79867067,59.40072899,64.11385077
73.94714837,59.59873499,64.24088765
74.08844340,59.83844340,64.33930103
74.19210978,60.03280446,64.40394511
74.31582333,60.23756432,64.54974271
74.42238422,60.38829331,64.61620926
74.56292882,60.58629931,64.74882075
74.67635077,60.81250000,64.87017581
74.78066038,61.02122642,64.96183533
74.94103774,61.17774443,65.05360206
75.03516295,61.39493997,65.14665523
75.15759005,61.60334477,65.20004288
75.25675386,61.79491852,65.38475557
75.33608491,61.99667667,65.45486707
75.43192539,62.19264580,65.52733705
75.56067753,62.39837050,65.63379074
75.60420240,62.48027444,65.68439108
74.99560463,61.82257719,65.18771441
74.16659520,60.63957976,64.43846484
73.61728130,59.74485420,64.02572899
73.45711835,59.42174099,63.87478559
73.29716981,59.14343911,63.76007719
73.09423242,58.82386364,63.57879503
72.88454117,58.51833190,63.39461835
72.42720840,57.99388937,62.83565609
72.50343053,58.05510292,62.93417667
72.56121355,58.12875214,62.99453259
72.54481132,58.15222985,62.98734991
72.55145798,58.15115780,62.98820755
72.61331475,58.22952401,62.97309177
72.71483705,58.34562607,63.10634648
72.84626930,58.52508576,63.19532590
72.92538593,58.67302744,63.24914237
73.07879503,58.89847770,63.42999571
73.20583190,59.10184391,63.48992281
73.30574614,59.24035163,63.54009434
73.40437393,59.41873928,63.66102058
73.52315609,59.57590051,63.71933962
73.63014580,59.76307890,63.87135506
73.74271012,59.95647513,63.94511149
73.89129503,60.16123499,64.03730703
74.01350772,60.35334477,64.16788165
74.08662093,60.57375643,64.22791595
74.19393225,60.76211407,64.31314322
74.32825901,60.99614065,64.47062607
74.45926244,61.20647513,64.54995712
74.55531732,61.42538593,64.64772727
74.25182247,61.03141081,64.32086192
73.46976844,60.06796741,63.66552316
73.02390652,59.20379503,63.22030446
72.84176672,58.81603774,63.06968268
72.77572899,58.69082333,63.08147513
72.67484991,58.51211407,62.94350343
72.58640652,58.32418525,62.85484563
72.61599485,58.31989708,62.87628645
72.75300172,58.43717839,62.95518868
72.82343482,58.55906947,63.05220840
72.81346484,58.55831904,63.07204117
72.81089194,58.54952830,63.01372213
72.86524443,58.59852058,63.07021870
72.99367496,58.77069039,63.18299743
73.11846055,58.94221698,63.31142796
73.27401372,59.12971698,63.45154374
73.37639365,59.34294597,63.44714837
73.49453259,59.49517581,63.57000429
73.59562607,59.62800172,63.64108062
73.64965695,59.78409091,63.71633791
73.81850343,60.00332333,63.84273156
73.94007290,60.17849485,63.94822041
74.08758576,60.37617925,64.04427530
74.14558319,60.55553173,64.11042024
74.28912950,60.76876072,64.25546741
74.41198542,61.01318611,64.44307461
74.58501286,61.24153087,64.53055317
74.67988851,61.48542024,64.62478559
74.41798885,61.17849485,64.38496998
73.73466981,60.28569897,63.76683105
73.25986278,59.54202401,63.34669811
73.15694683,59.22791595,63.20047170
73.13400515,59.15587479,63.20347341
73.06678816,58.96387221,63.15426672
72.95068611,58.78001715,62.98906518
72.92034734,58.76940395,63.02733705
72.97041166,58.82697256,63.05531732
73.02873070,58.87328473,63.13336192
72.99281732,58.85623928,63.10924099
72.96129931,58.82064751,63.07815180
73.01114923,58.87735849,63.11921098
73.13754288,59.06078473,63.20358062
73.25932676,59.20872642,63.29127358
73.35216552,59.34337479,63.40319468
73.45840480,59.49721269,63.51372213
73.53602058,59.64086621,63.54331046
73.63722127,59.79609777,63.61685249
73.69832762,59.92152659,63.68503431
73.78912950,60.03977273,63.76661664
73.89354631,60.21172813,63.87317753
73.97834477,60.34090909,63.92066895
74.06024871,60.49549743,63.97705832
74.13186106,60.69060892,64.06796741
74.23617067,60.84015866,64.21065609
74.22148370,60.88293310,64.18932247
73.64408233,60.18739280,63.67517153
73.04148799,59.29234563,63.13132504
72.71676672,58.74206690,62.87757290
72.61492281,58.48499142,62.75707547
72.52497856,58.28977273,62.69393225
72.33479846,58.03805746,62.56250000
72.17602916,57.79738422,62.46033448
72.18492710,57.78934391,62.44286021
72.21966123,57.79749142,62.46237136
72.20668954,57.79545455,62.49785592
72.13132504,57.73402659,62.47051887
72.14011578,57.72995283,62.46858919
72.13046741,57.73874357,62.47737993
72.20400943,57.84487564,62.53505575
72.35591767,58.01457976,62.60248714
72.43235420,58.17527873,62.71623070
72.53987993,58.30403087,62.78259005
72.65544597,58.43760720,62.88314751
72.74260292,58.56485849,62.96430103
72.82043310,58.68492710,63.00718268
72.93739280,58.87478559,63.13336192
73.02122642,58.99399657,63.22405660
73.12832333,59.14504717,63.27369211
73.20497427,59.27058319,63.34283877
73.26779588,59.37349914,63.40458834
73.35441681,59.52594340,63.50514580
73.44661235,59.69639794,63.58490566
73.53505575,59.81400086,63.64397513
73.23734991,59.49035163,63.38379074
72.51265009,58.54009434,62.77894511
71.94607633,57.67356346,62.30971269
71.68953688,57.28795026,62.14751286
71.52079760,57.01393654,61.97855918
71.30006432,56.71301458,61.74388937
71.10913379,56.37800172,61.68417667
71.00353774,56.23509863,61.61824614
71.09830617,56.31464408,61.66455832
71.19897084,56.40973413,61.79609777
71.21751715,56.44607633,61.78398370
71.22662950,56.47427101,61.79073756
71.24860635,56.51318611,61.82343482
71.35870497,56.65437393,61.88979417
71.48670669,56.87692967,62.04009434
71.64322470,57.04952830,62.09819897
71.76779588,57.20283019,62.20647513
71.91605918,57.41734563,62.39397513
71.96194254,57.56936106,62.41563036
72.10784734,57.74035163,62.55145798
72.21119211,57.91595197,62.61792453
72.36674528,58.12982419,62.73038165
72.51265009,58.32482847,62.83447684
72.64279588,58.50493139,62.89236707
72.78344768,58.70090051,63.01629503
72.92141938,58.91112779,63.18835763
73.03612779,59.12875214,63.29234563
73.19800600,59.34659091,63.38175386
73.32118353,59.50986278,63.47041166
73.46751715,59.71044168,63.57579331
73.52358491,59.87178388,63.70776158
73.19157376,59.52519297,63.38539880
72.48713551,58.59433962,62.77337050
71.97770154,57.81689537,62.36385077
71.78859348,57.49506861,62.19789880
71.71494425,57.34401801,62.21065609
71.61288593,57.12918096,62.10752573
71.44361063,56.89386792,61.92152659
71.40158662,56.85913379,61.92045455
71.54524014,57.02122642,62.09369640
71.67399228,57.16091338,62.16648799
71.69843482,57.20465266,62.20786878
71.73810034,57.25225129,62.21580189
71.79781304,57.32054031,62.24614065
71.94361063,57.52401372,62.42302744
72.05317324,57.73113208,62.45218696
72.19018010,57.90094340,62.59283877
72.34605489,58.13572041,62.71462264
72.47309177,58.29770583,62.85623928
72.52937393,58.47319897,62.87264151
72.67688679,58.66616638,62.97062607
72.78151801,58.81946827,63.08383362
72.96247856,59.02401372,63.20904803
73.06196398,59.25643225,63.31925386
73.19918525,59.43010292,63.42710120
73.30949828,59.65083619,63.46258576
73.46976844,59.85849057,63.62864494
73.59852058,60.03248285,63.79942110
73.68246141,60.21483705,63.81518010
73.74957118,60.39644082,63.85055746
73.91273585,60.61106346,64.01608062
74.01661664,60.79513293,64.09594768
74.06582333,60.92495712,64.15673242
73.55124357,60.39193825,63.70261578
72.88121784,59.38186106,63.15651801
72.50075043,58.64204545,62.73316895
72.33930103,58.35130789,62.61331475
72.26940395,58.20636792,62.60559605
72.14944254,57.95819039,62.48606346
71.96655232,57.73241852,62.36277873
71.97716552,57.69864923,62.45336621
72.08876501,57.80874786,62.53130360
72.15823328,57.91037736,62.58190395
72.15480274,57.92452830,62.57375643
72.14837050,57.94318182,62.60548885
72.21569468,58.00771870,62.60484563
72.30703259,58.14686964,62.70604631
72.45379503,58.34058748,62.84080189
72.63518439,58.54105918,62.95529588
72.74646226,58.74367496,63.02004717
72.82600772,58.93235420,63.07515009
72.95979846,59.07858062,63.23767153
73.05896226,59.24549743,63.30317324
73.16520154,59.38797170,63.42742281
73.26758148,59.55360206,63.46783877
73.42978130,59.77133362,63.57900943
73.51683105,59.97737993,63.70894082
73.63089623,60.14526158,63.74324614
73.75428816,60.33662093,63.88207547
73.86888937,60.53591338,64.00460978
73.97030446,60.73895798,64.11738851
74.12671527,60.93610635,64.26672384
74.23466981,61.11760292,64.34787736
74.24689108,61.13990137,64.35152230
73.64397513,60.39954974,63.82407804
72.94886364,59.29105918,63.17592196
72.57086192,58.61181389,62.89461835
72.44318182,58.31753859,62.71676672
72.37821612,58.18289022,62.74549743
72.24592624,57.92131218,62.56818182
72.14858491,57.77122642,62.52379931
72.24378216,57.85227273,62.64150943
72.33887221,57.97287736,62.68621355
72.32665094,57.98145369,62.68707118
72.31378645,57.93171098,62.66884648
72.30167238,57.93717839,62.67624357
72.35538165,58.00203688,62.67570755
72.50064322,58.17710120,62.85441681
72.64729846,58.36963979,62.95004288
72.80960549,58.58726415,63.08490566
72.94135935,58.76490137,63.13947256
72.99271012,58.90801887,63.20776158
73.12489280,59.03912950,63.32214837
73.24989280,59.20379503,63.44071612
73.32858062,59.34273156,63.47973842
73.46076329,59.50364494,63.63057461
73.56389365,59.63614923,63.65180103
73.66005575,59.84659091,63.75246569
73.80360206,60.02208405,63.88100343
73.94039451,60.25300172,64.01415094
73.98659949,60.34444683,64.06078473
73.59777015,59.82032590,63.69789880
72.74742710,58.67409949,62.99571184
72.18213979,57.79084477,62.49924957
71.97405660,57.39665523,62.37435678
71.87703688,57.21408662,62.32150515
71.75493139,56.98970840,62.18932247
71.62339194,56.77412093,62.04148799
71.66595197,56.82096913,62.08897942
71.86588765,57.03226844,62.28891509
71.89483276,57.08844340,62.35902659
71.88765009,57.09476844,62.34519726
71.90019297,57.08243997,62.33908662
71.94693396,57.14997856,62.37939537
72.08179674,57.30735420,62.47287736
72.18342624,57.52090480,62.63454117
72.34584048,57.70283019,62.68160377
72.51125643,57.91241424,62.81635935
72.65694683,58.11363636,62.94725557
72.78301887,58.24335334,62.97941681
72.86985420,58.38529160,63.06518010
73.00150086,58.59777015,63.17881647
73.08254717,58.74549743,63.24571184
73.22437822,58.93021012,63.35774014
73.35527444,59.12542882,63.51843911
73.49646226,59.33351201,63.62489280
73.66198542,59.53848628,63.76232847
73.74506861,59.70518868,63.81389365
73.50117925,59.43792882,63.57343482
72.62135506,58.30102916,62.84798456
71.92141938,57.25375214,62.35666810
71.59959262,56.75096484,62.01554460
71.53173242,56.59133791,61.98863636
71.37242710,56.35934820,61.84562607
71.22984563,56.13636364,61.74549743
71.20936964,56.08329760,61.73274014
71.41337907,56.31968268,61.97041166
71.55392367,56.51704545,62.01683105
71.63218268,56.61202830,62.04856346
71.66487993,56.67195540,62.07697256
71.75921955,56.77594340,62.16316467
71.89322470,56.98649228,62.27701544
72.10784734,57.22298456,62.48027444
72.25846913,57.47223413,62.56400086
72.40941252,57.71644511,62.69757719
72.58651372,57.98466981,62.81357204
72.72909520,58.16991852,62.96901801
72.87596484,58.37768010,63.05049314
73.03527015,58.59701973,63.22416381
73.17870926,58.87124786,63.35430961
73.36470840,59.13529160,63.41809605
73.53183962,59.38304031,63.58029588
73.68299743,59.63925815,63.70658233
73.82354202,59.93267581,63.79738422
74.02594340,60.17838765,63.96612350
74.15716123,60.42881647,64.07054031
74.25578902,60.62414237,64.15523156
74.41112779,60.88282590,64.31936106
74.53923671,61.18353345,64.46376501
74.63550600,61.43524871,64.58683533
74.37039022,61.10581046,64.32600772
73.63014580,60.12371355,63.66380789
73.20701115,59.44200257,63.27883791
73.06357204,59.19264580,63.16412950
73.02722985,59.07354202,63.13314751
72.93878645,58.89654803,63.06571612
72.80638937,58.69682676,62.92388508
72.79363208,58.66713122,62.94350343
72.92978130,58.83179674,63.02069039
73.04867067,59.02894511,63.18889365
73.08726415,59.09669811,63.20218696
73.15030017,59.16252144,63.27637221
73.22888079,59.30499571,63.34294597
73.36771012,59.52337050,63.39386792
73.50653945,59.74067324,63.51104202
73.63625643,59.96322899,63.61824614
73.74989280,60.19757719,63.74367496
73.88250429,60.44468268,63.87135506
73.97620069,60.61792453,63.99056604
74.05135077,60.78569897,64.04706261
74.19018010,61.01865352,64.13164666
74.33190395,61.31153516,64.32868782
74.50889794,61.53505575,64.52197684
74.63529160,61.76114923,64.64558319
74.71065609,61.96794597,64.65855489
74.87725129,62.20036449,64.76640223
75.02101201,62.43138937,64.92195540
75.13786449,62.65030017,65.08512007
75.25203688,62.88196827,65.17227702
75.35430961,63.10452401,65.27540738
75.48788593,63.28634220,65.36181389
75.63250429,63.54631218,65.50471698
75.72855918,63.73134648,65.60313036
75.31389365,63.20518868,65.17195540
74.66080617,62.34369640,64.64815609
74.32343482,61.78805746,64.35195111
74.22995283,61.61009863,64.24045883
74.22759434,61.44972127,64.19993568
74.09734134,61.23306175,64.11856775
73.94714837,61.03012436,63.96494425
74.01565180,61.02229846,63.99185249
74.05027873,61.06635935,64.07300600
74.09798456,61.09605489,64.11449400
74.07804460,61.06132075,64.08211835
74.07204117,61.04716981,64.07439966
74.10109348,61.05885506,64.11888937
74.14301029,61.12307033,64.13807890
74.26629503,61.28409091,64.21933962
74.37918096,61.42442110,64.35795455
74.44221698,61.55285163,64.42699400
74.52830189,61.69961407,64.47169811
74.59798456,61.81796741,64.53023156
74.64236707,61.89729846,64.55617496
74.71869640,62.03880789,64.65415952
74.80864065,62.15641081,64.76361492
74.89729846,62.27765866,64.75042882
75.00225129,62.44864923,64.89440395
75.10430961,62.54641938,64.93321184
75.20668954,62.70368782,65.08254717
75.29641938,62.87982419,65.14204545
75.38153945,63.04641938,65.26683105
75.38765009,63.07654374,65.22427101
74.89022298,62.46119211,64.79266724
74.20368782,61.49120926,64.21204974
73.83704974,60.79266724,63.81882504
73.72662950,60.39451115,63.67710120
73.61867496,60.15984134,63.56035592
73.48113208,59.82375643,63.38572041
73.35506003,59.57375643,63.29545455
73.36653087,59.55606775,63.30585334
73.37039022,59.58994425,63.36202830
73.37017581,59.55499571,63.34766295
73.31132075,59.42688679,63.27229846
73.26843911,59.37349914,63.24206690
73.27058319,59.38057461,63.19082333
73.32879503,59.45422384,63.29298885
73.45165094,59.62532161,63.44543310
73.52047599,59.73316895,63.47995283
73.60398799,59.86963979,63.56625214
73.70797599,59.97577187,63.66273585
73.75107204,60.05017153,63.63829331
73.82204117,60.17152659,63.75664666
73.90040738,60.26811750,63.78677101
73.97609348,60.41756003,63.87060463
74.07064751,60.57407804,63.97780875
74.17688679,60.68374786,64.04352487
74.20122213,60.93857204,64.12081904
74.32375643,61.10377358,64.22405660
74.25557461,61.05746141,64.18589194
73.61910377,60.17613636,63.56357204
72.93546312,59.03966552,62.98156089
72.50000000,58.33404803,62.61363636
72.31893225,58.01661664,62.55478130
72.13486278,57.70904803,62.39729846
71.95433105,57.39451115,62.19425386
71.74924957,57.13518439,62.10237993
71.82590051,57.18117496,62.15866209
71.96655232,57.35870497,62.28666381
71.98220412,57.38636364,62.31003431
71.99517581,57.39890652,62.29706261
72.00375214,57.41241424,62.25353774
72.02572899,57.51736707,62.37178388
72.17484991,57.67956690,62.45915523
72.31850343,57.87918096,62.63496998
72.48542024,58.09712693,62.73542024
72.61063465,58.29588336,62.84133791
72.71837479,58.45658233,62.88861492
72.80649657,58.60302316,62.96858919
72.86299314,58.74035163,63.02894511
72.98252573,58.89526158,63.08651372
73.14526158,59.09230274,63.29963551
73.28344768,59.32011149,63.34519726
73.41498714,59.51940395,63.47695111
73.55531732,59.68074614,63.54867067
73.66970412,59.88389794,63.69543310
73.76061321,60.08115352,63.70336621
73.86449400,60.28194683,63.81260720
73.98231132,60.49367496,63.92592196
74.07289880,60.66981132,64.08662093
73.64247427,60.17356346,63.62682247
72.79577616,58.94007290,62.96237136
72.17592196,57.96280017,62.43406947
71.88250429,57.51650943,62.19210978
71.73927959,57.28087479,62.09777015
71.56710978,57.01179245,61.96998285
71.30381647,56.69939966,61.79030875
71.28023156,56.57139794,61.76672384
71.44875643,56.74892796,61.92238422
71.58930103,56.94864923,62.02476415
71.59562607,56.98927959,62.07375643
71.58940823,57.03666381,62.06518010
71.62907376,57.09519726,62.08276158
71.75428816,57.22920240,62.15244425
71.94232419,57.45304460,62.31732419
72.07375643,57.65909091,62.40308748
72.21387221,57.89440395,62.50696827
72.33512007,58.08769297,62.62028302
72.43932247,58.23027444,62.74120926
72.56786021,58.41219983,62.79170240
72.66337907,58.57525729,62.93374786
72.77465695,58.75343053,62.98799314
72.92345626,58.97555746,63.09991424
73.07858062,59.16563036,63.20207976
73.19114494,59.37939537,63.30928388
73.31786021,59.60237993,63.38840051
73.48145369,59.81764580,63.50632504
73.56292882,60.00289451,63.63990137
73.65051458,60.21376501,63.75643225
73.73134648,60.43439108,63.77830189
73.92174099,60.64193825,63.91723842
73.89954974,60.68428388,63.93942967
73.29952830,59.89987136,63.38400515
72.43814322,58.65298027,62.68171098
71.91305746,57.81828902,62.27262007
71.72866638,57.48531304,62.13196827
71.58147513,57.24442539,61.99592624
71.35806175,56.95304460,61.82139794
71.19382504,56.69832762,61.67302744
71.20250858,56.70593911,61.70765437
71.38293310,56.90458834,61.90158662
71.45272298,57.01404374,61.93256861
71.46987564,57.05392367,61.95293739
71.49571184,57.06260720,61.98713551
71.55242281,57.16262864,62.00246569
71.68825043,57.36535163,62.08876501
71.80242281,57.51554460,62.15769726
71.92774443,57.70947684,62.35827616
72.06024871,57.87735849,62.40180103
72.21022727,58.08758576,62.53591338
72.29159520,58.21783877,62.58404803
72.38132504,58.36267153,62.69564751
72.48638508,58.51811750,62.78162521
72.60162950,58.70240137,62.85741852
72.66831046,58.87500000,62.90930532
72.83083190,59.04331046,62.99807033
72.92495712,59.23949400,63.08361921
73.06292882,59.41155660,63.20250858
73.16348628,59.59573328,63.29792024
73.25257290,59.80467410,63.37757290
73.33190395,59.97384220,63.39129503
73.32289880,60.00728988,63.43246141
72.78141081,59.31378645,62.88689966
71.96494425,58.07150515,62.31271441
71.41487993,57.27337050,61.83962264
71.22030446,56.92635077,61.70057890
71.10173671,56.72051887,61.65533877
70.96408662,56.48788593,61.50225129
70.83972985,56.31292882,61.38668525
70.94843482,56.41648799,61.50117925
71.08512007,56.61685249,61.64279588
71.06507290,56.62274871,61.62918096
71.03623499,56.61256432,61.56882504
71.04256003,56.60752573,61.58694254
71.13186106,56.72362779,61.69125214
71.29888508,56.89944254,61.84626930
71.44403945,57.12006861,61.96226415
71.57193396,57.30821184,61.99346055
71.73370497,57.49185249,62.16595197
71.89011578,57.69414666,62.26404374
71.97855918,57.87199828,62.28409091
72.11256432,58.03023156,62.45797599
72.22737993,58.20615352,62.50332333
72.35495283,58.41027015,62.63647084
72.48156089,58.58426244,62.70518868
72.63936535,58.83919383,62.89279588
72.80713979,59.08544168,62.99195969
72.97652230,59.33780017,63.14526158
72.91798885,59.37467839,63.05478130
72.29009434,58.61320755,62.53880789
71.59884220,57.54524014,61.92881647
71.15544597,56.88872213,61.58983705
71.08018868,56.73692110,61.54202401
71.01961835,56.60237993,61.47737993
70.91359348,56.43696398,61.39301029
70.90791166,56.41477273,61.41520154
71.13100343,56.64301029,61.56196398
71.33211835,56.89108062,61.75450257
71.37703688,56.96515866,61.78076758
71.42109777,57.02079760,61.84326758
71.45754717,57.10248714,61.87778731
71.63325472,57.30242281,61.99689108
71.83940823,57.54781304,62.08426244
71.97319897,57.80188679,62.20411664
72.21387221,58.04899228,62.38196827
72.34358919,58.32193396,62.48960120
72.51382933,58.55671098,62.62210549
72.68492710,58.80906947,62.69650515
72.82300600,59.03848628,62.89140223
73.03076758,59.30478130,63.01876072
73.17731561,59.59326758,63.13164666
73.35902659,59.86395798,63.28119640
73.56228559,60.19543310,63.50868353
73.72352058,60.51640223,63.64954974
73.89483276,60.77626501,63.79877787
73.82343482,60.75482419,63.75782590
73.23381218,60.01189966,63.14869211
72.73895798,59.26018439,62.69543310
72.59326758,58.94103774,62.60248714
72.51865352,58.82289880,62.54288165
72.42785163,58.64611921,62.42463551
72.35377358,58.47791595,62.32825901
72.32246998,58.40137221,62.37628645
72.50278731,58.62564322,62.50921955
72.62092624,58.79073756,62.62414237
72.64086621,58.86963979,62.62628645
72.64483276,58.92377787,62.65276587
72.68900086,58.96451544,62.61117067
72.74924957,59.07193396,62.64912093
72.90630360,59.32482847,62.85441681
73.06035592,59.56485849,62.97137650
73.15147942,59.74753431,63.05456690
73.29781304,59.98606346,63.24592624
73.39011578,60.21966123,63.26490137
73.50246569,60.45165094,63.44779160
73.64301029,60.64065180,63.54459691
73.79952830,60.86106346,63.70819039
73.91273585,61.11685249,63.79716981
74.03366209,61.33619211,63.90030017
74.21655232,61.62349914,64.06174957
74.32021870,61.82386364,64.15062178
74.42281304,62.02315609,64.24635506
74.54341767,62.25203688,64.35924099
74.70936964,62.50203688,64.51768868
74.85313036,62.70904803,64.62821612
74.90426672,62.86138508,64.63925815
74.52819468,62.42785163,64.31335763
73.99528302,61.74742710,63.91059177
73.75804031,61.37296312,63.64011578
73.73499142,61.24892796,63.59519726
73.69189537,61.17602916,63.62092624
73.57472127,60.97630789,63.49753431
73.48209691,60.80971269,63.43814322
73.48659949,60.81936106,63.45786878
73.61824614,60.94221698,63.53248285
73.66552316,61.02980274,63.57975986
73.66059177,61.05403087,63.58554889
73.68471269,61.07364923,63.59230274
73.71001286,61.14204545,63.62253431
73.78752144,61.28837907,63.67324185
73.91412950,61.45057890,63.85538165
74.02658662,61.60355918,63.87650086
74.12317753,61.75268010,63.94328902
74.21054889,61.89172384,64.03537736
74.28130360,62.03687822,64.11620926
74.34894940,62.17999571,64.21451544
74.42109777,62.29974271,64.23563465
74.53151801,62.46183533,64.36192110
74.61685249,62.64129503,64.48885077
74.73006003,62.81196398,64.55853345
74.82965266,62.99903516,64.67356346
74.93192539,63.19714837,64.76575901
75.06196398,63.34219554,64.80060034
75.12071184,63.50686106,64.91016295
75.23584906,63.66380789,65.01629503
75.30017153,63.80789022,65.06389365
75.41948971,63.95936964,65.15662521
75.49292453,64.14858491,65.25664666
75.54491852,64.30563894,65.28805746
75.29963551,63.99817753,65.05413808
74.71558748,63.14847770,64.56657376
74.36588765,62.54641938,64.20207976
74.24056604,62.18910806,64.06710978
74.16659520,61.98027444,64.00557461
74.04170240,61.73466981,63.89976415
73.89644082,61.43353345,63.67624357
73.83651372,61.26061321,63.65169383
73.89772727,61.31861063,63.71269297
73.91187822,61.31110635,63.67817324
73.83629931,61.23402659,63.69757719
73.79427530,61.11996141,63.65255146
73.77637221,61.08962264,63.61792453
73.79416810,61.06646655,63.60977702
73.83865780,61.14097341,63.64826329
73.91198542,61.21580189,63.66734563
73.99131647,61.32257719,63.77154803
74.04073756,61.42367067,63.81539451
74.09637650,61.48316895,63.90276587
74.16327187,61.58887221,63.89912093
74.23734991,61.66102058,63.99120926
74.31818182,61.77980274,64.11363636
74.36749571,61.89129503,64.07011149
74.46966123,62.04256003,64.24474700
74.55017153,62.15480274,64.28087479
74.65308748,62.32632933,64.37156947
74.70283019,62.39901372,64.43996569
74.82965266,62.59701973,64.52948113
74.93439108,62.74764151,64.60784734
74.98949400,62.85012864,64.68782161
74.67667238,62.45283019,64.35613208
74.01650943,61.51436535,63.83897942
73.62253431,60.82965266,63.38218268
73.46012007,60.44103774,63.30831904
73.35184391,60.20776158,63.18975129
73.22705832,59.92452830,63.00557461
73.06067753,59.59905660,62.86127787
73.03237564,59.52165523,62.83833619
73.06057033,59.54491852,62.88968696
73.02283448,59.50568182,62.89097341
72.88829331,59.34948542,62.81796741
72.86460120,59.31700257,62.78955832
72.89933533,59.30070755,62.77969554
72.94661235,59.35999142,62.78409091
73.04320326,59.47609348,62.90019297
73.15834048,59.65362350,63.03334048
73.22469983,59.78559177,63.13657804
73.28044597,59.91252144,63.17174099
73.36288593,60.03655660,63.24882075
73.47930961,60.18213979,63.32193396
73.55488851,60.34283877,63.43524871
73.64590480,60.49689108,63.52433533
73.75943396,60.67066895,63.60806175
73.92120497,60.88882933,63.76382933
74.06057033,61.10066467,63.81507290
74.15566038,61.28773585,63.93739280
74.01093482,61.11792453,63.85634648
73.40426672,60.25954117,63.21687393
72.89204545,59.38775729,62.79577616
72.65222985,58.91423671,62.54695540
72.52390652,58.66798885,62.45015009
72.38882933,58.39933533,62.33329760
72.21333619,58.11728130,62.23006003
72.17066895,58.02958834,62.14322470
72.25471698,58.16059177,62.25621784
72.40855489,58.35795455,62.43664237
72.41402230,58.39493997,62.40866209
72.43331904,58.40265866,62.41166381
72.48306175,58.42924528,62.44897084
72.66605918,58.64290309,62.57922384
72.79609777,58.83319039,62.68910806
72.97469983,59.09626930,62.82890223
73.12081904,59.33051029,62.93535592
73.26736707,59.52444254,63.04052316
73.40212264,59.74303173,63.22394940
73.50203688,59.94586192,63.32515009
73.67195540,60.18610635,63.44361063
73.83897942,60.45325901,63.61320755
73.98145369,60.71301458,63.75525300
74.10859777,60.91927530,63.87617925
74.28259005,61.18010292,63.99807033
74.41938250,61.45175815,64.14215266
74.62907376,61.72684391,64.28666381
74.75225129,61.97609348,64.44071612
74.62403516,61.85409520,64.30370926
74.12907376,61.10441681,63.82868782
73.79459691,60.52915952,63.46397942
73.71462264,60.30831904,63.34391081
73.72191252,60.20604631,63.36878216
73.63379074,60.05231561,63.27958834
73.55542453,59.86460120,63.14140223
73.54631218,59.84219554,63.17795883
73.70743997,60.02476415,63.30156518
73.81893225,60.21301458,63.43857204
73.89033019,60.31142796,63.47587907
73.93106775,60.42034734,63.53462693
74.07268439,60.56839623,63.66252144
74.14751286,60.70926244,63.76265009
74.28355489,60.99710549,63.86117067
74.44071612,61.20079331,64.02304889
74.61009863,61.46408662,64.18857204
74.74335334,61.70240137,64.30767581
74.85570326,61.93439108,64.39129503
74.93567753,62.16487993,64.50450257
75.08919383,62.38700686,64.64193825
75.24185249,62.61813894,64.78923671
75.41123499,62.85956261,64.93181818
75.52562178,63.10323756,65.05949828
75.68128216,63.36610206,65.16219983
75.83179674,63.60645369,65.26404374
75.97502144,63.84080189,65.44264580
76.10452401,64.07557890,65.54749142
76.22941681,64.28859348,65.65051458
76.35377358,64.55467410,65.74185249
76.50621784,64.79352487,65.89258148
76.39504717,64.76361492,65.85259434
75.91434391,64.12660806,65.40469554
75.65512436,63.75503859,65.11631647
75.65533877,63.74024443,65.18492710
75.67967410,63.74828473,65.19146655
75.63432676,63.67506432,65.19286021
75.57772298,63.58737136,65.09337479
75.57793739,63.59208834,65.07836621
75.71655232,63.72555746,65.16680961
75.83490566,63.89193825,65.31325043
75.85763293,63.92988851,65.33940823
75.85227273,63.96333619,65.38572041
75.88121784,64.03623499,65.39837050
75.97405660,64.16680961,65.45583190
76.01372213,64.35248714,65.50643225
76.08340480,64.47512864,65.61106346
76.21623070,64.62660806,65.71387221
76.29513293,64.73552744,65.78719983
76.39193825,64.94982847,65.87114065
76.47394940,65.06828902,65.97459262
76.52969554,65.17870926,65.97780875
76.61706690,65.33361921,66.04974271
76.68900086,65.50975557,66.18213979
76.76039880,65.66627358,66.23316895
76.84852058,65.83715695,66.35495283
76.92817324,65.99785592,66.43524871
77.00793310,66.14043739,66.49849914
77.09701973,66.31164237,66.61009863
77.20293739,66.48252573,66.69950686
77.25900515,66.64386792,66.81346484
77.32750858,66.80285163,66.89268868
77.40769726,66.99174528,66.91841767
77.51876072,67.13797170,67.01211407
77.23927959,66.82032590,66.77401372
76.69993568,66.10881218,66.33243997
76.54888508,65.80403087,66.18503431
76.62285592,65.74142367,66.21269297
76.64236707,65.67924528,66.22255575
76.58640652,65.51372213,66.07675815
76.53719983,65.34337479,66.04556175
76.54577616,65.31335763,66.01897513
76.58629931,65.32879503,66.07236278
76.63379074,65.34005146,66.10377358
76.63196827,65.28355489,66.06142796
76.58865780,65.21987564,66.01211407
76.57236278,65.17484991,66.00096484
76.59723413,65.19543310,66.05199400
76.65137221,65.21719554,66.08769297
76.70358062,65.27840909,66.13925815
76.78323328,65.37006861,66.15008576
76.79545455,65.41595197,66.19918525
76.80681818,65.46548027,66.21976844
76.86288593,65.52605060,66.22759434
76.89225986,65.59423242,66.24024443
76.93310463,65.60934820,66.28301887
77.02680103,65.74356775,66.37735849
77.07311321,65.79545455,66.39515437
77.12575043,65.89719125,66.47759434
77.17324185,65.98391938,66.49785592
77.22405660,66.06367925,66.55896226
77.28966552,66.19275300,66.63421955
77.36556604,66.26801029,66.70090051
77.29716981,66.25964837,66.65951973
76.82729417,65.57171955,66.24817753
76.42699400,64.87210549,65.83008148
76.28141081,64.52283448,65.67656518
76.25192967,64.35205832,65.71054889
76.18492710,64.17099057,65.63689966
76.08265437,63.89954974,65.46773156
76.02015437,63.72727273,65.42602916
76.03473413,63.73241852,65.45283019
76.03891509,63.73509863,65.45443825
75.96837479,63.60902659,65.34830617
75.88904374,63.46644511,65.30499571
75.87167667,63.42892367,65.30842624
75.87114065,63.42195540,65.34498285
75.92495712,63.45454545,65.29867067
75.96054889,63.53108919,65.39172384
75.99260292,63.59659091,65.43278302
76.03537736,63.63164666,65.46119211
76.07311321,63.67624357,65.48670669
76.12800172,63.74892796,65.53001715
76.17334906,63.83029588,65.58265437
76.24421098,63.89236707,65.65544597
76.27337050,63.99056604,65.71183533
76.33769297,64.10012864,65.72748714
76.44253859,64.22148370,65.83747856
76.50503859,64.33222556,65.85881218
76.44961407,64.26608062,65.82118353
75.91391509,63.56314322,65.37081904
75.42635077,62.80649657,64.92313465
75.23209691,62.37918096,64.70829760
75.16209262,62.09391081,64.66745283
75.03795026,61.90866209,64.54180961
74.84305317,61.61813894,64.31282161
74.78151801,61.37006861,64.26886792
74.80789022,61.36427959,64.27744425
74.79416810,61.41638079,64.31389365
74.77069039,61.35774014,64.29256003
74.66916810,61.24635506,64.20368782
74.66487993,61.18996569,64.17753002
74.66423671,61.21633791,64.22212693
74.70283019,61.26843911,64.24463979
74.77551458,61.41852487,64.28923671
74.81346484,61.49571184,64.31153516
74.85473842,61.56914666,64.41262864
74.99785592,61.73134648,64.51307890
74.98574185,61.87982419,64.55821184
75.07697256,61.97877358,64.64644082
75.15458834,62.10591767,64.68031732
75.27572899,62.25879074,64.83426244
75.37092624,62.43567753,64.85162950
75.46269297,62.56796741,64.90630360
75.56378645,62.72630789,65.05799743
75.64301029,62.93589194,65.14236707
75.77036878,63.10891938,65.24592624
75.86277873,63.29738422,65.34005146
75.79448971,63.21129931,65.27883791
75.17388508,62.44918525,64.74120926
74.74313894,61.71312178,64.28945111
74.61149228,61.38957976,64.16016295
74.53044597,61.21269297,64.09669811
74.44811321,61.02186964,64.01243568
74.27798027,60.78205403,63.86374357
74.16209262,60.59948542,63.77701544
74.22051887,60.63261149,63.77840909
74.32847341,60.75514580,63.88529160
74.34369640,60.79159520,63.91723842
74.36084906,60.81346484,63.90330189
74.40147942,60.84637650,63.93878645
74.45711835,60.96140652,63.97512864
74.60066467,61.13003859,64.08093911
74.66295026,61.28687822,64.16873928
74.79663379,61.48381218,64.34230274
74.88668525,61.66327187,64.35495283
74.95036449,61.81914666,64.45679674
75.06603774,61.98863636,64.58361921
75.18481990,62.19854202,64.69789880
75.22587907,62.38046741,64.75996998
75.37457118,62.55853345,64.84026587
75.50536021,62.76114923,65.01029160
75.61181389,62.94886364,65.07214837
75.71805317,63.13765009,65.14043739
75.83147513,63.33040309,65.26929674
75.95615352,63.53419811,65.37725129
76.07054031,63.71955403,65.49313894
76.17785163,63.90662521,65.56421527
76.27487136,64.09133791,65.69275300
76.39140223,64.28462693,65.78334048
76.52036878,64.46569468,65.88979417
76.58565609,64.64376072,65.94050172
76.19554031,64.19318182,65.62971698
75.60280875,63.32386364,65.12146226
75.33704974,62.88057461,64.85120069
75.30220840,62.74281732,64.78955832
75.27208405,62.65072899,64.73713551
75.16552316,62.41616638,64.59798456
74.99560463,62.18342624,64.50718268
75.00278731,62.15394511,64.54095197
75.03730703,62.21719554,64.54459691
75.10581046,62.29491852,64.59787736
75.09015866,62.26918954,64.62639365
75.08469125,62.26908233,64.61299314
75.10945540,62.30027873,64.64290309
75.16970412,62.37918096,64.67099057
75.28312607,62.54277444,64.78376930
75.37446398,62.65834048,64.81057033
75.44307461,62.81014151,64.92356346
75.51275729,62.92163379,64.96665952
75.59155232,63.04888508,64.99592624
75.64826329,63.15040738,65.08587050
75.72148370,63.26114923,65.14965695
75.79384648,63.42077616,65.20036449
75.92292024,63.60366638,65.34230274
76.02605060,63.73895798,65.45400943
76.14569039,63.91391509,65.50460978
76.20079331,64.05521012,65.60924099
76.28955832,64.20250858,65.68750000
76.35227273,64.34927101,65.70283019
76.45990566,64.50171527,65.80403087
76.54995712,64.66359348,65.86513722
76.67195540,64.82397084,65.96162093
76.68524871,64.89837050,66.03687822
76.30177959,64.41756003,65.68278302
75.71397942,63.50900515,65.16273585
75.36792453,62.96269297,64.83469125
75.24828473,62.71891081,64.70068611
75.21976844,62.60184391,64.71397942
75.08061750,62.38829331,64.56625214
74.97620069,62.14665523,64.43674957
74.94554031,62.10999142,64.36921098
74.99110206,62.14826329,64.47137650
74.99485420,62.13379074,64.49249571
74.93739280,62.01007719,64.44661235
74.89762007,61.96751715,64.39054460
74.94864923,62.00568182,64.43985849
75.09948542,62.20561750,64.58876501
75.23627787,62.41316467,64.69811321
75.29491852,62.55006432,64.81185678
75.34959262,62.65834048,64.86846055
75.41370069,62.77047599,64.85731132
75.44028731,62.82750858,64.90619640
75.51286449,62.88872213,65.00686106
75.61213551,62.99592624,65.06989708
75.68074614,63.11663808,65.12092624
75.75621784,63.25707547,65.18374786
75.87006861,63.38100343,65.28752144
75.97963122,63.58061750,65.36642367
76.07933105,63.75150086,65.42667238
76.13293310,63.89279588,65.48198971
76.13968696,63.93342624,65.52304889
75.64311750,63.30864065,65.04942110
75.03451973,62.30660377,64.54759863
74.66734563,61.71280017,64.19200257
74.57761578,61.41530875,64.07289880
74.45626072,61.22105489,63.98327616
74.31603774,60.89772727,63.84455403
74.17024014,60.63464837,63.69082333
74.15330189,60.58962264,63.68610635
74.15887650,60.63207547,63.75385935
74.16595197,60.57332762,63.78301887
74.10666810,60.50439537,63.70658233
74.08962264,60.47984563,63.69854202
74.11020583,60.46076329,63.71333619
74.16498714,60.56271441,63.73338336
74.29363208,60.71001286,63.86074185
74.37446398,60.87274871,63.94028731
74.44746998,60.99485420,64.00171527
74.50996998,61.09294597,64.06035592
74.57675815,61.19897084,64.12607204
74.62349914,61.35506003,64.15930532
74.70379503,61.50932676,64.25954117
74.80070755,61.69114494,64.37489280
74.89440395,61.80328045,64.48381218
74.97845197,61.94907804,64.53183962
75.10623928,62.14719125,64.63968696
75.20400943,62.33651372,64.69050172
75.34530446,62.53033877,64.79234563
75.19854202,62.40480274,64.69854202
74.50793310,61.43096055,64.07375643
73.88325472,60.34937822,63.47973842
73.57064751,59.73381218,63.15448113
73.41316467,59.44575472,63.01372213
73.19189537,59.14108062,62.91230703
72.94961407,58.76200686,62.66316467
72.80617496,58.52186964,62.54331046
72.84198113,58.56153516,62.61963979
72.91680961,58.68353345,62.72341338
72.90898370,58.68750000,62.72073328
72.87960978,58.63754288,62.68021012
72.87231990,58.64804889,62.62060463
72.93578473,58.72952401,62.72051887
73.08147513,58.91445111,62.82504288
73.18996569,59.10313036,62.95840480
73.32418525,59.31003431,63.02680103
73.47255575,59.48992281,63.18267581
73.60323756,59.65405232,63.26361492
73.68782161,59.80295883,63.33426244
73.78205403,59.94007290,63.41177101
73.88968696,60.10388079,63.50568182
73.99764151,60.33855060,63.65994854
74.14697684,60.50203688,63.75825472
74.19146655,60.71226415,63.82354202
74.33051029,60.92334906,63.98659949
74.44811321,61.11556604,64.02594340
74.52476415,61.27819468,64.15705403
74.65576758,61.47909520,64.23102487
74.77229846,61.65694683,64.35698971
74.93021012,61.84701973,64.47802316
74.99485420,62.03451973,64.60227273
74.66144940,61.68567753,64.21676672
73.81314322,60.44886364,63.49496141
73.16616638,59.37585763,62.85377358
72.87896655,58.79684820,62.64611921
72.72416381,58.55799743,62.60023585
72.54738422,58.29416810,62.39365352
72.26951115,57.94596913,62.10999142
72.15115780,57.75192967,62.10270154
72.23831475,57.84680532,62.20572470
72.36331475,58.00546741,62.27862350
72.38454117,58.05585334,62.30328045
72.36427959,58.01993997,62.34884220
72.41605918,58.09916381,62.37575043
72.52251286,58.21076329,62.45218696
72.65276587,58.42742281,62.58029588
72.83254717,58.63679245,62.67367067
72.94982847,58.82547170,62.77594340
73.06346484,59.00514580,62.82632933
73.19296741,59.22041166,62.95626072
73.29524014,59.34648370,63.06625214
73.38925815,59.52176244,63.14954974
73.51286449,59.69339623,63.27980274
73.66798885,59.95615352,63.43750000
73.78698542,60.15876930,63.47695111
73.93128216,60.36288593,63.60452401
74.05445969,60.57783019,63.71762436
74.14772727,60.76822470,63.80660377
74.25428816,60.96826758,63.93353345
74.36653087,61.13968696,64.01940395
74.45851201,61.33072470,64.09530446
74.61310034,61.55435249,64.26232847
74.71140652,61.76500858,64.34562607
74.59487564,61.65319468,64.27776587
73.90791166,60.61888937,63.64183105
73.16037736,59.43739280,62.91273585
72.75407376,58.82675815,62.56003431
72.64665523,58.57482847,62.50921955
72.55885506,58.39033019,62.41498714
72.39065180,58.11728130,62.23799314
72.25278731,57.94854202,62.20561750
72.35720412,58.04009434,62.28752144
72.45250858,58.16627358,62.34894940
72.44843482,58.19586192,62.32750858
72.40726844,58.18471269,62.33565609
72.43321184,58.17742281,62.36545883
72.55467410,58.30403087,62.44811321
72.67613636,58.47459262,62.52862350
72.81303602,58.70283019,62.69897084
72.96033448,58.92517153,62.78730703
73.09562607,59.11556604,62.90415952
73.20229417,59.24710549,62.98852916
73.27219125,59.34659091,63.04727702
73.38765009,59.54245283,63.16295026
73.46933962,59.70454545,63.26522298
73.56400086,59.87424957,63.28334048
73.70626072,60.06217839,63.43996569
73.80681818,60.22898799,63.48949400
73.94671955,60.43364065,63.64011578
74.00257290,60.57890223,63.70561750
74.14097341,60.78119640,63.80842624
74.26382933,60.99496141,63.87703688
74.15898370,60.89333190,63.86953259
73.42066895,59.87435678,63.17066895
72.66091338,58.77433533,62.53698542
72.26050600,58.11685249,62.21269297
72.13915094,57.86170669,62.11020583
72.05574614,57.71397942,62.00600343
71.90351630,57.47041166,61.87092624
71.85259434,57.37296312,61.87810892
71.95283019,57.48391938,61.98927959
72.05981990,57.59433962,62.04459691
72.03205403,57.58737136,62.05992710
71.97577187,57.55467410,62.03001715
71.97137650,57.55049314,62.00868353
72.04245283,57.65630360,62.09262436
72.21301458,57.86331475,62.24560463
72.33040309,58.02530017,62.21333619
72.45947684,58.25900515,62.44210978
72.58061750,58.39944254,62.53730703
72.70315180,58.54920669,62.56357204
72.78055317,58.68342624,62.65319468
72.88239708,58.84551887,62.67077616
72.97609348,58.99581904,62.79663379
73.10130789,59.14461835,62.89976415
73.21430103,59.34187393,62.97952401
73.31110635,59.53301887,63.04030875
73.47877358,59.73820755,63.23799314
73.46644511,59.82021870,63.23831475
72.99764151,59.17474271,62.76200686
72.14097341,57.97695111,62.11181389
71.54599057,57.12532161,61.59316038
71.33994425,56.73274014,61.45207976
71.17849485,56.50139365,61.28870069
70.96805317,56.17753002,61.11084906
70.77497856,55.92377787,60.99774871
70.80831904,55.96312178,61.03044597
70.99024443,56.18192539,61.17484991
71.04716981,56.27315609,61.23477702
71.04052316,56.28451973,61.24120926
71.07150515,56.33822899,61.28141081
71.16230703,56.42152659,61.35506003
71.31003431,56.60120069,61.49721269
71.50568182,56.88475557,61.67034734
71.65308748,57.09712693,61.77079760
71.80306604,57.31678816,61.82386364
71.97116209,57.50996998,61.99324614
72.08061750,57.68567753,62.09476844
72.19671955,57.87274871,62.18299743
72.37875214,58.11074185,62.30156518
72.53730703,58.31582333,62.39000858
72.66702401,58.51200686,62.52508576
72.82311321,58.72277015,62.68546312
72.96215695,58.94286021,62.74646226
73.08962264,59.12392796,62.85012864
73.26211407,59.41134220,63.00482419
73.42184820,59.61631647,63.17849485
73.44018010,59.77615780,63.13829331
73.03687822,59.21269297,62.72084048
72.17742281,58.08115352,62.03269726
71.58597770,57.20111492,61.58211835
71.36910377,56.81228559,61.36245712
71.23949400,56.58533448,61.29095197
71.04406089,56.31678816,61.16563036
70.87467839,56.06936106,61.00975557
70.86460120,56.04041595,61.03441252
71.02004717,56.24967839,61.19050172
71.15126501,56.42334906,61.23295455
71.18053173,56.48799314,61.34176672
71.21076329,56.53087479,61.35934820
71.26843911,56.61556604,61.38336192
71.40265866,56.79138079,61.51479417
71.59530446,57.02004717,61.60709691
71.76758148,57.29202401,61.75450257
71.92302744,57.52401372,61.87607204
72.07879503,57.73359777,62.02219125
72.19446827,57.90887650,62.15180103
72.32943825,58.13561321,62.22566467
72.48745712,58.32922384,62.34830617
72.60355918,58.51672384,62.41809605
72.77208405,58.77530017,62.54545455
72.93171098,59.01811750,62.68900086
73.07525729,59.24399657,62.84069468
73.24003002,59.45465266,62.94629074
73.35141509,59.68460549,63.02079760
73.51650943,59.90694683,63.18224700
73.58587050,60.11031304,63.30285163
73.73220412,60.32783019,63.38186106
73.81710978,60.54802744,63.42988851
73.91948971,60.72737993,63.54706261
73.45100772,60.21580189,63.13025300
72.72169811,59.09476844,62.46526587
72.22566467,58.28548456,62.07836621
72.00761149,57.94264580,61.80992710
71.90201544,57.73134648,61.74185249
71.67581475,57.47791595,61.63400515
71.54438250,57.20518868,61.49378216
71.47545026,57.16756003,61.46816038
71.60130789,57.30156518,61.59680532
71.70829760,57.42099057,61.73574185
71.72652230,57.45958405,61.74281732
71.76243568,57.52637221,61.75986278
71.80799743,57.59830617,61.78998714
71.94371784,57.76039880,61.95529588
72.06153516,57.92324185,62.00300172
72.20679674,58.15040738,62.06721698
72.35355918,58.34819897,62.19339623
72.50536021,58.59498285,62.34562607
72.58329760,58.75804031,62.44972127
72.71783877,58.92216981,62.53344768
72.84155232,59.12071184,62.62671527
73.00568182,59.30049314,62.77647942
73.07161235,59.45497427,62.84562607
73.17538593,59.65780446,62.93460549
73.24678388,59.84305317,63.02379931
73.35441681,60.00192967,63.10956261
73.45015009,60.19457547,63.15769726
73.57332762,60.37885935,63.27594340
73.68074614,60.57804460,63.34734134
73.73820755,60.77658662,63.43481990
73.61685249,60.62692967,63.36020583
72.91155660,59.63111063,62.65791166
72.35591767,58.72212693,62.14451115
72.09809177,58.21387221,61.93857204
71.98391938,57.97534305,61.81132075
71.83340480,57.77229846,61.73713551
71.66584477,57.52197684,61.54556175
71.66123499,57.46826758,61.61299314
71.78923671,57.59626930,61.72512864
71.82965266,57.65405232,61.79191681
71.80210120,57.66080617,61.72019726
71.79513293,57.63797170,61.72909520
71.81978988,57.66027015,61.77647942
71.91423671,57.79652659,61.80810463
72.09584048,57.97791595,61.98542024
72.24228130,58.19511149,62.14558319
72.32375643,58.35141509,62.17581475
72.43599914,58.51940395,62.29298885
72.51157804,58.64022298,62.36170669
72.59991424,58.77358491,62.45368782
72.72737993,58.96172813,62.51361492
72.80049314,59.07150515,62.56936106
72.88711407,59.23359777,62.63196827
73.03955832,59.44478988,62.80092196
73.14504717,59.64161664,62.95465266
73.24892796,59.86042024,63.01565180
73.34787736,59.98381218,63.12639365
73.03205403,59.59616209,62.82129074
72.23359777,58.48402659,62.10966981
71.70840480,57.60227273,61.59648370
71.45475986,57.17066895,61.46805317
71.28602058,56.94639794,61.35313036
71.13925815,56.67184820,61.20186535
70.97287736,56.41477273,61.04641938
70.98059605,56.40683962,61.09723413
71.12156947,56.58254717,61.22598628
71.19264580,56.65876930,61.29770583
71.15673242,56.65994854,61.31132075
71.14676244,56.66198542,61.28334048
71.19607633,56.71258576,61.35066467
71.32665094,56.90490995,61.47437822
71.48081046,57.10859777,61.56442967
71.64054460,57.32257719,61.70765437
71.76500858,57.47963122,61.77229846
71.87446398,57.60066467,61.81721698
71.94500429,57.74217410,61.90276587
72.05017153,57.87328473,61.99099485
72.14311750,58.04534734,62.08136792
72.29073756,58.25428816,62.22791595
72.40405232,58.37875214,62.29513293
72.54588336,58.56518010,62.41981132
72.70776158,58.83361921,62.52873070
72.89140223,59.06292882,62.68256861
73.00846913,59.27605060,62.78827187
72.87349914,59.11685249,62.67174099
72.06014151,58.04792024,61.99924957
71.24442539,56.91831046,61.32032590
70.79631218,56.25000000,60.97813036
70.62650086,55.93010292,60.82011149
70.49078045,55.67302744,60.71012007
70.27712264,55.34080189,60.55542453
70.11192110,55.14536878,60.45969125
70.26843911,55.30531732,60.58361921
70.48692110,55.53537736,60.83855060
70.50160806,55.61117067,60.82879503
70.51447256,55.64590480,60.80328045
70.51983276,55.69243139,60.84916381
70.70122213,55.88668525,60.94693396
70.89440395,56.11695969,61.14633362
71.01382933,56.30263722,61.24774871
71.17999571,56.57322041,61.40340909
71.29824185,56.76672384,61.47877358
71.45368782,56.94210978,61.54781304
71.52262007,57.08394082,61.65705403
71.65458834,57.24142367,61.71783877
71.81668096,57.40887650,61.85548885
71.95947684,57.60891938,61.91659520
72.06571612,57.84123070,62.07364923
72.19822041,58.05928388,62.16756003
72.31839623,58.25686106,62.22427101
72.44586192,58.43750000,62.35045026
72.59380360,58.61545883,62.45272298
72.69746998,58.77337050,62.54524014
72.84916381,58.97223413,62.67163379
72.97019726,59.18246141,62.77873070
73.02669383,59.29105918,62.80113636
72.46215695,58.58286878,62.30263722
71.41873928,57.18996569,61.52894511
70.74817753,56.20615352,60.95829760
70.50364494,55.79009434,60.74528302
70.38668525,55.56914666,60.73659949
70.17624357,55.27873070,60.52958834
69.92302744,54.98627787,60.31861063
69.95347341,54.96805317,60.39686964
70.16702401,55.23842196,60.57525729
70.28441252,55.40748285,60.67249142
70.30081475,55.46440823,60.68224700
70.35420240,55.51865352,60.73777873
70.45808319,55.63239708,60.86503002
70.59626930,55.85120069,60.93589194
70.78055317,56.07900943,61.09787736
70.88850772,56.25085763,61.19511149
71.07515009,56.49281732,61.32665094
71.18803602,56.68117496,61.35956261
71.28795026,56.83211835,61.43353345
71.41187822,57.02144082,61.55403087
71.53827187,57.20079331,61.64783448
71.69800600,57.41198542,61.77647942
71.83780017,57.59058748,61.84637650
72.01650943,57.80896226,62.02594340
72.20186535,58.09316038,62.17184820
72.30424528,58.27251286,62.22855918
72.43975129,58.47984563,62.44275300
72.54577616,58.64183105,62.44007290
72.69253859,58.86427959,62.56539451
72.81518010,59.05488851,62.70090051
72.98413379,59.27915952,62.85205832
72.94446827,59.28880789,62.77530017
72.19864923,58.33544168,62.15212264
71.24078045,57.01072041,61.37071184
70.71129931,56.21494425,60.99731990
70.52358491,55.92302744,60.86127787
70.47587907,55.81185678,60.83415523
70.29341767,55.58951544,60.72480703
70.20572470,55.46837479,60.61460120
70.32847341,55.57847341,60.78687822
70.51307890,55.80467410,60.92988851
70.54867067,55.88829331,60.89794168
70.54952830,55.88765009,60.92517153
70.59348199,55.91166381,60.92216981
70.69811321,56.05874786,61.02594340
70.84852058,56.27412093,61.10838336
71.06603774,56.56753859,61.29052316
71.23638508,56.79706261,61.41219983
71.40362350,57.00460978,61.59273156
71.51650943,57.19918525,61.67495712
71.64762007,57.36052744,61.75525300
71.72737993,57.50975557,61.81485849
71.88593482,57.71483705,61.95368782
72.06442967,57.89826329,62.08136792
72.17495712,58.09798456,62.23499142
72.34509005,58.30992710,62.34251715
72.43750000,58.52969554,62.43385506
72.60227273,58.75493139,62.56282161
72.73434820,58.95690395,62.64536878
72.64987136,58.85870497,62.55703259
71.88346913,57.81014151,61.90876930
70.92645798,56.55274443,61.17109777
70.49967839,55.90105060,60.82686535
70.40448113,55.68642796,60.76704545
70.32204117,55.56903945,60.70711835
70.18213979,55.37682247,60.55799743
70.16327187,55.34423242,60.61567324
70.37017581,55.54899228,60.78248285
70.49174528,55.74539022,60.88346913
70.51779588,55.78580617,60.88893654
70.53183962,55.79792024,60.92420669
70.57096913,55.84991424,60.94704117
70.70400943,56.03870069,61.07643654
70.92034734,56.28098199,61.23359777
71.10559605,56.51404374,61.37789451
71.25450257,56.72877358,61.46633791
71.39043739,56.92088336,61.63893654
71.49399657,57.03644940,61.65394511
71.53773585,57.17452830,61.65137221
71.67828045,57.29942110,61.70593911
71.79084477,57.47244854,61.85966981
71.91530875,57.62114065,61.92388508
72.10656089,57.87092624,62.20218696
72.23456261,58.07397084,62.25578902
72.41573756,58.33297599,62.36921098
72.55445969,58.55810463,62.53216123
72.36310034,58.33972985,62.35130789
71.42227702,57.09037307,61.53591338
70.51608062,55.86878216,60.77530017
70.16584477,55.21430103,60.51768868
69.97802316,54.96773156,60.33093911
69.88196827,54.81314322,60.27883791
69.67013293,54.53376930,60.13346913
69.62189108,54.45465266,60.11888937
69.86438679,54.64847770,60.30349485
70.04931389,54.92624357,60.49871355
70.13379074,55.07246998,60.58812178
70.14686964,55.09240995,60.59176672
70.23038165,55.13582762,60.62189108
70.31786021,55.30177959,60.64633362
70.51307890,55.54009434,60.84283877
70.70111492,55.78323328,61.01822470
70.87532161,56.02926672,61.15769726
70.99496141,56.26340051,61.18964408
71.09584048,56.34969983,61.35420240
71.25032161,56.59787736,61.44714837
71.39161664,56.77605060,61.56936106
71.56432247,57.00064322,61.67431389
71.73574185,57.22737993,61.84230274
71.92088336,57.46612350,61.92602916
72.07933105,57.69939966,62.08855060
72.21290738,57.92560034,62.16123499
72.34476844,58.09283877,62.29438250
72.45347341,58.27508576,62.33704974
72.61835334,58.51393654,62.50107204
72.78848628,58.76811750,62.62832333
72.91605918,58.92034734,62.70358062
72.35227273,58.31732419,62.25257290
71.37371355,56.98606346,61.48542024
70.70894082,55.99217410,60.90126501
70.46955403,55.58383362,60.74463979
70.36953259,55.41498714,60.63411235
70.20668954,55.16230703,60.44596913
69.99946398,54.91134220,60.35988422
70.03194683,54.88186106,60.36406518
70.23756432,55.15394511,60.58640652
70.44060892,55.41723842,60.73499142
70.48048885,55.49378216,60.72534305
70.51811750,55.56721698,60.78033877
70.58147513,55.65458834,60.80295883
70.71901801,55.87317753,60.91970412
70.91477273,56.10409520,61.05971269
71.04448971,56.33844340,61.15705403
71.22277015,56.53409091,61.28859348
71.35152230,56.74453259,61.45015009
71.51650943,56.95068611,61.51029160
71.66005575,57.14954974,61.62832333
71.80060034,57.32847341,61.77272727
71.93160377,57.55874786,61.88100343
72.06153516,57.81775300,61.97427101
72.26693825,58.10441681,62.11149228
72.44060892,58.34905660,62.27615780
72.62532161,58.58715695,62.41069897
72.75718268,58.83651372,62.54599057
72.91337907,59.07311321,62.68460549
73.07257719,59.33351201,62.79191681
73.22737993,59.58715695,62.98102487
73.34433962,59.79995712,63.00085763
73.36213551,59.95240137,63.01136364
72.86888937,59.32300600,62.54191681
72.01640223,58.16069897,61.92484991
71.51114923,57.39279588,61.45626072
71.34959262,57.11224271,61.32107633
71.28998714,56.96301458,61.29170240
71.14150943,56.71826758,61.19961407
70.98842196,56.53066038,61.03323328
71.06292882,56.62810892,61.11138508
71.25225129,56.79341767,61.36760292
71.28494854,56.92538593,61.33919383
71.32761578,56.95561750,61.38829331
71.34391081,57.01093482,61.44532590
71.42131218,57.14987136,61.44704117
71.60656089,57.32332762,61.57397084
71.74614065,57.54545455,61.70454545
71.89804889,57.77626501,61.85280875
72.04663379,57.97459262,61.98231132
72.20443825,58.16906089,62.08351201
72.28955832,58.33201115,62.09294597
72.38304031,58.53441252,62.24753431
72.52283448,58.70293739,62.28870069
72.64504717,58.90276587,62.41198542
72.78344768,59.12135506,62.53108919
72.88775729,59.31121355,62.67227702
73.00996998,59.49045883,62.78334048
73.10741852,59.69939966,62.89558319
73.22201973,59.92227702,62.97094768
73.37853774,60.15448113,63.15855489
73.38057461,60.24656947,63.10270154
72.84873499,59.53248285,62.67828045
72.12596484,58.41627358,61.91648799
71.66445111,57.66895369,61.53923671
71.46247856,57.36556604,61.40608919
71.37918096,57.17463551,61.39804889
71.19425386,56.91680961,61.23306175
71.07632933,56.74957118,61.16638079
71.16520154,56.85087907,61.23831475
71.27958834,56.98349057,61.35077187
71.29867067,57.01650943,61.35741852
71.28012436,56.99110206,61.33694254
71.26758148,56.97427101,61.30081475
71.32461407,57.05102916,61.38293310
71.47212693,57.20518868,61.51050600
71.60152230,57.42527873,61.62081904
71.77830189,57.63614923,61.74549743
71.90147942,57.81764580,61.85602487
71.98466981,57.93535592,61.87682247
72.06968268,58.09262436,62.00707547
72.18374786,58.25921955,62.08512007
72.31518010,58.42517153,62.15973413
72.45840480,58.60956261,62.29674099
72.56614494,58.78655660,62.40383791
72.71183533,59.03644940,62.52915952
72.83608491,59.20936964,62.62532161
72.71065609,59.09766295,62.51575901
71.99635506,58.15180103,61.92324185
71.20561750,57.00771870,61.25728988
70.75514580,56.32096913,60.91445111
70.50471698,55.96912521,60.71247856
70.31164237,55.64033019,60.55306604
70.10077187,55.29352487,60.40287307
69.98188250,55.17935249,60.33201115
70.16123499,55.35484563,60.45111492
70.26029160,55.48156089,60.57204117
70.27926672,55.51897513,60.60731132
70.27562178,55.50332333,60.57557890
70.25868353,55.50032161,60.59852058
70.37017581,55.63175386,60.69543310
70.53837907,55.83126072,60.84712693
70.69982847,56.03945111,60.99485420
70.82686535,56.22737993,61.05649657
70.98059605,56.39569039,61.14719125
71.09401801,56.54792024,61.21751715
71.21494425,56.71344340,61.31700257
71.26629503,56.89472556,61.37178388
71.42913808,57.05156518,61.47737993
71.57161235,57.23391938,61.53902230
71.71923242,57.44564751,61.67206261
71.85463122,57.61363636,61.81796741
71.96419383,57.81410806,61.90866209
72.08640652,58.03623499,61.99871355
72.23209691,58.23316895,62.17056175
72.12049743,58.13679245,62.06582333
71.32986707,57.09530446,61.29749142
70.48852916,55.92742281,60.65276587
70.06271441,55.27497856,60.34787736
69.88207547,54.95540309,60.21912521
69.64826329,54.66198542,59.99903516
69.40705403,54.31850343,59.82815180
69.30542453,54.15490995,59.74603345
69.47834477,54.34541166,59.85248714
69.68664237,54.61331475,60.05606775
69.73284734,54.73692110,60.11899657
69.78827187,54.77755146,60.13132504
69.86331475,54.86974700,60.20358062
69.99303173,55.07279160,60.34015866
70.13732847,55.29063036,60.44307461
70.32847341,55.53559177,60.59112350
70.48842196,55.75643225,60.65759005
70.66627358,56.01683105,60.85323756
70.81518010,56.20025729,60.99313894
70.97888079,56.44178816,61.09637650
71.11352916,56.64590480,61.15619640
71.31421527,56.88668525,61.29084477
71.44704117,57.11449400,61.43803602
71.54695540,57.34626930,61.49163808
71.78773585,57.60870497,61.68138937
71.92109777,57.81260720,61.78773585
72.10720412,58.06668096,61.96183533
72.24099485,58.27551458,62.06560892
72.36042024,58.47084048,62.15501715
72.48563465,58.69854202,62.27637221
72.62628645,58.92881647,62.43803602
72.78344768,59.16981132,62.53301887
72.74989280,59.18449828,62.50225129
72.08265437,58.33372642,61.88947256
71.30917667,57.21333619,61.22877358
70.87575043,56.58201115,60.92034734
70.65630360,56.28923671,60.77401372
70.49324614,56.01854631,60.66777444
70.23702830,55.70100772,60.42613636
70.08222556,55.48123928,60.29663379
70.16359348,55.53945111,60.34584048
70.35055746,55.80231561,60.55338765
70.41005575,55.88668525,60.60087907
70.46687393,55.94864923,60.65233705
70.47813036,56.01758148,60.63722127
70.57750858,56.11331475,60.76082762
70.72587907,56.31678816,60.90834048
70.84455403,56.51415094,60.99656947
71.01586621,56.73927959,61.08876501
71.17892367,56.95593911,61.22137650
71.31378645,57.15576758,61.27347770
71.45304460,57.33769297,61.42795883
71.57697256,57.54030875,61.50771870
71.68599914,57.72330617,61.61867496
71.82225557,57.93096055,61.71204974
71.97116209,58.16134220,61.84787736
72.09487564,58.36610206,61.92742281
72.25718268,58.56507290,62.08136792
72.31099914,58.77326329,62.16884648
72.46258576,58.93921527,62.27948113
72.59744854,59.13454117,62.37103345
72.70154374,59.39558319,62.53194683
72.79770583,59.59937822,62.62789451
72.57236278,59.31099914,62.38496998
71.79159520,58.26693825,61.74849914
71.19018010,57.30874786,61.18825043
70.89729846,56.85506003,60.97255575
70.77497856,56.60688250,60.91434391
70.61846055,56.35709691,60.76104202
70.38797170,56.05349485,60.51918954
70.38754288,56.00503859,60.56014151
70.53859348,56.15501715,60.78516295
70.58104631,56.22877358,60.77658662
70.55746141,56.22877358,60.78902230
70.54674099,56.23113208,60.72748714
70.56989708,56.24871355,60.77487136
70.69210978,56.38679245,60.87049743
70.83501286,56.55563894,60.97137650
70.97641509,56.70883362,61.07847341
71.06250000,56.89118782,61.19564751
71.16648799,57.02433533,61.20508148
71.27776587,57.18878645,61.29491852
71.37189108,57.27347770,61.37810892
71.49271012,57.45154374,61.43417667
71.56828902,57.60859777,61.55563894
71.66219983,57.78848628,61.55992710
71.82332762,57.96397942,61.76222127
71.96269297,58.15394511,61.84948542
72.10677530,58.37349914,62.01179245
72.05360206,58.41337907,61.96290738
71.57032590,57.70561750,61.52551458
70.77658662,56.59691252,60.86234991
70.24592624,55.80874786,60.44918525
70.00482419,55.46087050,60.28055317
69.81925386,55.13507719,60.17002573
69.55585334,54.76704545,60.00375214
69.43610635,54.56410806,59.87778731
69.52594340,54.65051458,59.98220412
69.69500429,54.87146226,60.15405232
69.74260292,54.92806604,60.21001286
69.71676672,54.95004288,60.15458834
69.72255575,54.95926244,60.13829331
69.84884220,55.09391081,60.27594340
69.99153087,55.24238851,60.37596484
70.14429674,55.45411664,60.53087479
70.31957547,55.69800600,60.65876930
70.41102058,55.86878216,60.73606346
70.56593053,56.06078473,60.78334048
70.69897084,56.24013722,60.88936535
70.82107633,56.41155660,61.00203688
70.96762436,56.57868782,61.15887650
71.09144511,56.75396655,61.26897513
71.23434820,56.95368782,61.37285592
71.38818611,57.15726844,61.42442110
71.50042882,57.34669811,61.57975986
71.66123499,57.56560892,61.68310463
71.76511578,57.74281732,61.70658233
71.61492281,57.54738422,61.61385077
70.70057890,56.39590480,60.90469554
69.84433962,55.18953688,60.23198971
69.40051458,54.50235849,59.85441681
69.18996569,54.13293310,59.65287307
68.98584906,53.84112350,59.52208405
68.74517581,53.51533019,59.36653087
68.63496998,53.31871784,59.21923242
68.75075043,53.46322899,59.32943825
68.94650515,53.70207976,59.51490137
68.97201973,53.79599057,59.54663379
69.00879074,53.82868782,59.57675815
69.08887221,53.91005575,59.65362350
69.22791595,54.06582333,59.78387650
69.38722127,54.27358491,59.92238422
69.55553173,54.53687822,60.07654374
69.73274014,54.75075043,60.19307461
69.87553602,54.97459262,60.27948113
70.03655660,55.17785163,60.46258576
70.13496998,55.34037307,60.50460978
70.29438250,55.51736707,60.65415952
70.43149657,55.71387221,60.76404374
70.60591767,55.94361063,60.83683533
70.73220412,56.14558319,60.94918525
70.88968696,56.37575043,61.13089623
71.04513293,56.58243997,61.25632504
71.21483705,56.79116638,61.34048027
71.35506003,56.99271012,61.45240137
71.44757719,57.16991852,61.52240566
71.59841338,57.35634648,61.63636364
71.71194254,57.58715695,61.74710549
71.88175386,57.80456690,61.92270583
71.71869640,57.63164666,61.74378216
70.69768439,56.35870497,60.89065180
69.73466981,55.02819468,60.17206261
69.28612779,54.28505575,59.74024443
69.11503002,53.99260292,59.61760292
68.92077616,53.75739708,59.49174528
68.73874357,53.48209691,59.37124786
68.60195111,53.28141081,59.21387221
68.73659949,53.42699400,59.31185678
68.93417667,53.65051458,59.48734991
69.01093482,53.77722985,59.59841338
69.06550172,53.81442967,59.62360635
69.07879503,53.89954974,59.66498714
69.19746998,54.10849057,59.78923671
69.36277873,54.32418525,59.93524871
69.58372642,54.56957547,60.08093911
69.73938679,54.82021870,60.23917238
69.95604631,55.07718696,60.41959691
70.10023585,55.30049314,60.53355489
70.21891081,55.48863636,60.59969983
70.34980703,55.67849485,60.73509863
70.54824185,55.91616638,60.87006861
70.69532590,56.13228988,60.94618353
70.86942539,56.40566038,61.17452830
71.03430532,56.61277873,61.26972556
71.20765437,56.84316038,61.36631647
71.37081904,57.12274871,61.50289451
71.54202401,57.31925386,61.65373070
71.72159091,57.57579331,61.77605060
71.85516724,57.80563894,61.86588765
71.98381218,57.97802316,61.99967839
71.47051887,57.28548456,61.52069039
70.39075901,55.91691681,60.69564751
69.66820326,54.89054460,60.09787736
69.43385506,54.49474700,59.91327187
69.38132504,54.41455832,59.90598199
69.28301887,54.27058319,59.83319039
69.20165094,54.12446398,59.72695111
69.27937393,54.19661235,59.81903945
69.46837479,54.47866638,60.00289451
69.59605489,54.61320755,60.06346484
69.60752573,54.64140223,60.10280875
69.66102058,54.75471698,60.18717839
69.97384220,55.16788165,60.45497427
70.29759863,55.60270154,60.68610635
70.60506003,55.94639794,60.87864494
70.77905232,56.25911235,61.08758576
70.94200257,56.46258576,61.23810034
71.06024871,56.63228988,61.30896226
71.19060892,56.76951115,61.37607204
71.31582333,56.95926244,61.43310463
71.59873499,57.34123070,61.65576758
71.83179674,57.68599914,61.86460120
72.01425815,57.91434391,62.04727702
72.17677959,58.15212264,62.15898370
72.32654374,58.31260720,62.22234134
72.38679245,58.46655232,62.26865352
71.83072470,57.78569897,61.81678816
70.83136792,56.47201973,61.00546741
70.25739708,55.59080189,60.57450686
70.04867067,55.22662950,60.43160377
70.03784305,55.17849485,60.42034734
69.95154374,55.10441681,60.35420240
69.89236707,55.01801029,60.33897942
70.03580617,55.17774443,60.44661235
70.25225129,55.37703688,60.64804889
70.31453688,55.48263293,60.67174099
70.30478130,55.48338336,60.63882933
70.36921098,55.53280446,60.67817324
70.53998714,55.73059605,60.81721698
70.74581904,56.03248285,61.00460978
70.93707118,56.31164237,61.16177101
71.11835334,56.57418525,61.26179245
71.27883791,56.77755146,61.42527873
71.36009863,56.90898370,61.49260292
71.52262007,57.10752573,61.62189108
71.66284305,57.28891509,61.70679674
71.76297170,57.47523585,61.76447256
71.91906089,57.67785163,61.91348628
72.07364923,57.88132504,62.09744854
72.22823756,58.10302316,62.19371784
72.41069897,58.31292882,62.36117067
72.26993997,58.22877358,62.22662950
71.34712693,57.01672384,61.35806175
70.35763293,55.62843053,60.66873928
69.86878216,54.84755575,60.22984563
69.69489708,54.58833619,60.09734134
69.58544168,54.46601630,60.06314322
69.47309177,54.23724271,59.90276587
69.38840051,54.12682247,59.86052744
69.60023585,54.34187393,60.09894940
69.80445969,54.64022298,60.19575472
69.94489708,54.80253002,60.34648370
69.99935678,54.88464837,60.37907376
70.10184391,54.99871355,60.43374786
70.30177959,55.22416381,60.58865780
70.49742710,55.53709262,60.77144082
70.71162093,55.81217839,60.97662950
70.91434391,56.11159949,61.15083619
71.10098628,56.33554889,61.27165523
71.19757719,56.51189966,61.36245712
71.35570326,56.72362779,61.47770154
71.50846913,56.89954974,61.60023585
71.68900086,57.18728559,61.71472985
71.90330189,57.44403945,61.91187822
72.09498285,57.71119211,62.01114923
72.29298885,57.95165094,62.15748285
72.44650515,58.21387221,62.29256003
72.59744854,58.43835763,62.43213979
72.75932676,58.64847770,62.56421527
72.92227702,58.94307461,62.67935249
72.96719554,58.99957118,62.73413379
72.28505575,58.14225986,62.12403516
71.16595197,56.61449400,61.26608062
70.48177530,55.57332762,60.72255575
70.23681389,55.15405232,60.54620497
70.10945540,54.95979846,60.41177101
69.91820326,54.70615352,60.29363208
69.72780875,54.48552744,60.13325472
69.81389365,54.57246998,60.20540309
70.09809177,54.90319468,60.43857204
70.31142796,55.15598199,60.63904374
70.32332762,55.28687822,60.61856775
70.38700686,55.34433962,60.68353345
70.56796741,55.56325043,60.85591767
70.74120926,55.77229846,61.01265009
70.97545026,56.03012436,61.16841767
71.17602916,56.29352487,61.28687822
71.36567324,56.56142796,61.48274014
71.53108919,56.77508576,61.58919383
71.66616638,56.99142367,61.71676672
71.81346484,57.17602916,61.81903945
71.92710120,57.35313036,61.94339623
72.11642367,57.63314751,62.03966552
72.27208405,57.83812178,62.10227273
72.48927959,58.11256432,62.30253002
72.61106346,58.32783019,62.45218696
72.74989280,58.52990995,62.52004717
72.84884220,58.68524871,62.58083190
72.99624786,58.94243139,62.75675386
73.16938250,59.14343911,62.88957976
73.38282590,59.43728559,63.08051029
73.27133362,59.35237993,62.95872642
72.29009434,58.04588336,62.12971698
71.25064322,56.57139794,61.28023156
70.70475986,55.73563465,60.85248714
70.56239280,55.48241852,60.78280446
70.47502144,55.39290309,60.69393225
70.34809177,55.21151372,60.57858062
70.30392367,55.13175386,60.58737136
70.49356775,55.32397084,60.75943396
70.71440823,55.60956261,60.90008576
70.74431818,55.70015009,60.95465266
70.74185249,55.67474271,60.98413379
70.76232847,55.73016724,60.95701115
70.91777444,55.93171098,61.15512436
71.15265866,56.17838765,61.28945111
71.32118353,56.45861921,61.43246141
71.50353774,56.69629074,61.56057033
71.67377787,56.89740566,61.67742281
71.81839623,57.14000858,61.83640652
71.95958405,57.31786021,61.96837479
72.06946827,57.46569468,62.05960549
72.21923242,57.67463551,62.10752573
72.34691252,57.83619211,62.18181818
72.50053602,58.05628216,62.34916381
72.63786449,58.26029160,62.45240137
72.81099914,58.50075043,62.61052744
72.91123499,58.65909091,62.66230703
72.46247856,58.09841338,62.22834477
71.41412950,56.72759434,61.38411235
70.66273585,55.62714408,60.86706690
70.37800172,55.19596913,60.58297599
70.30274443,55.07268439,60.56067753
70.24271012,54.96033448,60.51758148
70.13379074,54.82547170,60.44532590
70.26168525,54.93771441,60.56764580
70.49120926,55.23113208,60.75042882
70.63175386,55.39397513,60.87339194
70.62156947,55.42345626,60.87928816
70.64622642,55.44618353,60.89901372
70.77101201,55.59348199,60.91916810
70.94682676,55.85291595,61.13121784
71.17131218,56.12285592,61.29545455
71.32590051,56.39901372,61.44532590
71.51490137,56.62617925,61.54277444
71.65759005,56.78409091,61.67174099
71.75761149,56.94221698,61.77840909
71.91348628,57.14633362,61.93514151
72.00793310,57.28902230,61.99528302
72.12532161,57.44093053,62.03527015
72.27262007,57.65898370,62.16906089
72.44939966,57.88529160,62.32461407
72.63979417,58.15951973,62.45840480
72.61074185,58.13218268,62.41177101
71.71258576,56.99710549,61.61031304
70.67259863,55.58168954,60.84755575
70.13625643,54.75889794,60.42163379
70.00493139,54.52079760,60.30853345
69.86545883,54.32107633,60.18728559
69.73852916,54.12553602,60.05756861
69.63882933,53.99088765,60.05113636
69.79148799,54.18771441,60.19307461
70.01854631,54.47930961,60.35752573
70.14097341,54.62424957,60.46816038
70.13432676,54.65812607,60.45615352
70.19339623,54.73713551,60.51886792
70.32536449,54.90233705,60.62639365
70.51511578,55.11996141,60.80542453
70.69864923,55.41219983,60.95572470
70.85473842,55.66713122,61.11009863
71.01007719,55.83704974,61.19639794
71.14815609,56.04352487,61.30960549
71.26490137,56.20743997,61.36095626
71.38003859,56.36009863,61.45658233
71.48413379,56.56239280,61.54566895
71.66638079,56.77701544,61.68374786
71.79974271,56.98885077,61.76779588
71.97277015,57.20840480,61.96183533
72.12017581,57.40490995,62.04234563
72.26039880,57.62660806,62.13046741
72.37617925,57.78719983,62.23788593
72.52165523,57.99742710,62.39665523
72.68353345,58.21097770,62.47169811
72.72566467,58.30306604,62.49839194
72.03634220,57.46751715,61.92206261
70.81142796,55.85409520,60.99024443
70.07793739,54.74646226,60.37960978
69.78055317,54.34894940,60.14504717
69.68299743,54.11245712,60.02712264
69.47598628,53.81861063,59.83254717
69.28087479,53.53687822,59.66187822
69.28259005,53.54738422,59.70754717
69.52969554,53.83093911,59.98231132
69.69478988,54.08201115,60.13496998
69.73316895,54.20229417,60.14869211
69.78955832,54.25246569,60.17120497
69.87885935,54.37885935,60.28752144
70.03259005,54.58619211,60.38314751
70.23509863,54.86781732,60.56335763
70.39354631,55.07750858,60.70122213
70.53387650,55.30445969,60.81046312
70.68074614,55.49571184,60.91873928
70.86545883,55.74603345,61.03183962
70.98509863,55.95358062,61.16327187
71.10463122,56.12006861,61.26951115
71.21204974,56.33211835,61.32332762
71.39611921,56.54470412,61.52690823
71.57054031,56.77744425,61.60034305
71.75418096,56.98338336,61.75225129
71.91948971,57.24045883,61.87553602
72.07182676,57.46076329,61.99871355
72.21590909,57.67495712,62.14043739
72.37189108,57.87296312,62.25246569
72.53162521,58.12553602,62.32343482
72.66144940,58.32718696,62.43953688
72.84466123,58.55049314,62.58158233
72.92388508,58.67817324,62.68589194
72.14129503,57.79824185,62.04202401
70.95636792,56.20186535,61.08308319
70.23488422,55.12939537,60.51404374
69.99807033,54.71397942,60.31882504
69.86395798,54.55949828,60.22652230
69.75868353,54.35774014,60.06164237
69.58126072,54.10613208,59.95368782
69.64665523,54.15909091,60.03344768
69.86738851,54.43535592,60.22652230
69.95250858,54.63475557,60.34830617
69.99281732,54.68685678,60.38239708
70.02154803,54.71558748,60.41734563
70.07246998,54.81861063,60.45261578
70.26511578,55.00782590,60.63475557
70.44393225,55.26725986,60.77047599
70.62392796,55.51157804,60.92774443
70.78194683,55.73670669,61.03216123
70.91766724,55.96633791,61.12628645
71.07472127,56.18771441,61.29749142
71.18975129,56.36234991,61.27444254
71.33972985,56.56893225,61.47888079
71.51543739,56.77615780,61.61299314
71.65759005,56.98713551,61.69704117
71.80949828,57.17635077,61.81400086
71.96880360,57.43599914,61.93642796
72.07504288,57.58126072,61.99721269
72.26704545,57.81464408,62.12489280
72.39954974,58.04663379,62.28612779
72.53516295,58.27744425,62.41144940
72.28087479,57.98284734,62.13271870
71.24860635,56.66391509,61.31507290
70.31174957,55.36192110,60.61578045
69.88003859,54.68685678,60.21172813
69.77755146,54.52562178,60.15898370
69.75718268,54.46515866,60.14526158
69.66370069,54.27862350,60.06978988
69.65641081,54.29256003,60.12596484
69.88078902,54.53130360,60.26929674
69.97319897,54.71355060,60.35698971
70.00771870,54.71569468,60.39601201
69.99485420,54.72534305,60.40287307
70.03516295,54.81668096,60.38421955
70.22813036,55.02015437,60.56217839
70.43138937,55.25235849,60.73434820
70.62757290,55.56861063,60.89515437
70.80188679,55.79545455,61.05017153
70.98048885,56.03602058,61.17045455
71.08008148,56.20379503,61.22287736
71.19114494,56.36695969,61.38046741
71.26618782,56.50117925,61.41177101
71.35216552,56.65490995,61.44843482
71.53559177,56.87006861,61.56689537
71.67688679,57.06153516,61.72684391
71.87810892,57.32579331,61.87960978
72.07225557,57.56153516,62.01822470
71.93760720,57.43867925,61.90780446
70.96430103,56.23617067,61.11181389
69.96548027,54.86234991,60.30467410
69.44714837,54.10774014,59.90426672
69.30295883,53.85420240,59.75257290
69.26597341,53.70593911,59.70229417
69.07364923,53.50846913,59.56271441
69.01993997,53.42302744,59.54416810
69.19993568,53.63582762,59.72673671
69.37650086,53.88100343,59.87735849
69.40876930,53.93364065,59.89376072
69.40426672,53.94393225,59.86438679
69.44457547,53.98917238,59.88261149
69.57086192,54.16991852,60.01854631
69.72159091,54.38797170,60.16005575
69.91573756,54.62585763,60.36063465
70.09584048,54.88529160,60.47641509
70.23734991,55.07911664,60.55424528
70.35002144,55.24689108,60.69393225
70.48863636,55.45969125,60.72319897
70.59048027,55.63036021,60.87221269
70.75150086,55.84048027,61.01822470
70.88872213,56.03323328,61.13786449
71.06271441,56.23424099,61.24110206
71.20390223,56.43246141,61.27787307
71.38089623,56.63003859,61.47030446
71.46912521,56.87392796,61.53516295
71.63014580,57.07054031,61.70861921
71.32193396,56.72437822,61.41412950
70.18685678,55.28505575,60.55799743
69.22620069,53.89772727,59.68096055
68.80703259,53.25064322,59.32825901
68.64365352,53.02551458,59.20926244
68.51286449,52.79802744,59.07890223
68.30971269,52.55199400,58.93278302
68.27572899,52.44253859,58.95368782
68.41820326,52.65683962,59.07322041
68.65641081,52.93063894,59.24474700
68.72491424,53.03837907,59.33061750
68.76865352,53.13186106,59.36342196
68.80756861,53.18471269,59.36953259
68.96108491,53.41241424,59.52819468
69.14676244,53.63325472,59.70808319
69.34937822,53.90876930,59.87982419
69.53741424,54.16605918,59.96108491
69.69307461,54.36631647,60.11695969
69.84144511,54.61524443,60.25396655
69.98574185,54.84852058,60.37746569
70.13904374,55.02840909,60.51254288
70.29406089,55.24153087,60.65834048
70.43031732,55.48842196,60.75450257
70.60784734,55.70840480,60.86084906
70.78312607,55.93235420,61.05199400
70.94596913,56.15673242,61.18632075
71.06818182,56.36170669,61.22941681
71.22984563,56.58254717,61.35934820
71.33554889,56.73713551,61.42710120
71.44425386,56.94746998,61.53730703
71.62692967,57.14965695,61.71076329
71.73617067,57.32772298,61.78977273
71.25203688,56.77605060,61.35473842
70.03355489,55.22287736,60.37081904
69.15941252,53.91970412,59.64890652
68.76254288,53.30177959,59.32579331
68.65801887,53.11020583,59.21162093
68.48820755,52.89065180,59.14429674
68.35945540,52.64054460,58.99539022
68.31936106,52.58351201,59.01189966
68.50589623,52.88539880,59.17163379
68.68171098,53.12146226,59.30177959
68.74946398,53.18385506,59.34787736
68.78419811,53.23831475,59.37853774
68.85827616,53.34176672,59.39515437
68.96580189,53.53891509,59.57515009
69.17753002,53.76693825,59.74013722
69.35216552,54.01640223,59.89976415
69.53837907,54.29373928,60.03709262
69.68278302,54.49581904,60.17785163
69.84176672,54.69382504,60.28945111
69.92292024,54.87682247,60.36138508
70.11256432,55.09026587,60.52551458
70.24463979,55.30638937,60.65716123
70.39804889,55.49581904,60.72845197
70.55778302,55.71601630,60.84573328
70.73777873,55.94489708,61.02186964
70.83029588,56.16434391,61.11009863
70.96355060,56.33104631,61.19446827
71.19489708,56.59069468,61.42795883
71.33512007,56.83919383,61.45004288
71.32568611,56.85184391,61.46226415
70.45475986,55.77530017,60.80703259
69.39429674,54.34755575,59.92109777
68.82268439,53.45626072,59.35484563
68.69318182,53.22405660,59.27615780
68.65523156,53.15930532,59.28773585
68.60452401,53.04749142,59.21494425
68.59165952,53.04448971,59.25546741
68.82064751,53.24989280,59.44500429
68.98906518,53.51929674,59.61020583
69.02219125,53.58093911,59.63368353
69.01533019,53.57450686,59.56850343
69.02079760,53.62971698,59.56668096
69.18074614,53.73927959,59.70475986
69.36481561,54.02390652,59.92763722
69.61299314,54.31410806,60.13014580
69.80574614,54.58747856,60.29052316
69.97480703,54.82193396,60.39440395
70.08126072,54.98906518,60.51522298
70.21065609,55.16884648,60.62124786
70.26511578,55.28805746,60.65662521
70.41788165,55.44704117,60.80638937
70.56196398,55.63036021,60.87778731
70.71708834,55.81207118,60.97866638
70.87231990,56.04363208,61.16820326
71.01136364,56.26415094,61.26415094
70.92452830,56.15051458,61.17903087
69.97791595,54.94382504,60.36642367
69.03237564,53.64858491,59.56796741
68.61953259,52.97437822,59.19071612
68.46344340,52.73895798,59.07150515
68.40834048,52.64569039,59.10666810
68.31207118,52.46451544,58.99989280
68.29974271,52.44832762,59.00300172
68.56560892,52.74764151,59.20797599
68.74463979,53.00235849,59.34519726
68.77047599,53.06571612,59.38711407
68.79009434,53.08876501,59.39772727
68.82450686,53.14290309,59.40641081
68.99946398,53.34766295,59.55478130
69.18728559,53.62124786,59.68942967
69.38486278,53.88078902,59.86556604
69.50514580,54.11963979,60.05081475
69.61331475,54.28141081,60.09358919
69.68589194,54.39279588,60.14129503
69.79395369,54.53537736,60.21097770
69.94221698,54.73681389,60.35087907
70.03837907,54.82096913,60.44596913
70.15126501,55.00825472,60.52883791
70.29716981,55.18160377,60.67045455
70.44178816,55.40105060,60.76039880
70.47073328,55.45658233,60.75782590
69.75996998,54.57643654,60.13754288
68.79609777,53.22148370,59.30060034
68.24710549,52.36610206,58.83286878
68.04180961,52.07161235,58.71526587
67.97084048,51.89708405,58.60656089
67.78537736,51.67431389,58.45304460
67.73595626,51.54984991,58.48745712
67.92281304,51.78237564,58.61792453
68.21194254,52.18171098,58.84766295
68.31035592,52.38432676,58.94135935
68.40490995,52.48359777,59.01554460
68.50782590,52.63518439,59.08243997
68.64483276,52.81657376,59.17292024
68.81796741,53.04566895,59.32011149
68.97255575,53.31132075,59.46462264
69.20690395,53.59326758,59.67645798
69.45368782,53.91809605,59.85120069
69.61438679,54.19972127,59.98724271
69.74882075,54.42013293,60.13346913
69.89311750,54.59894940,60.17527873
70.12778731,54.91466552,60.44939966
70.22877358,55.13593482,60.55381647
70.44714837,55.43364065,60.71129931
70.59562607,55.69596913,60.74035163
70.84959262,55.98295455,60.96816038
71.06421527,56.27798027,61.09873499
71.26147084,56.57557890,61.28484134
71.17367067,56.52658662,61.18996569
70.49292453,55.64472556,60.57204117
69.78902230,54.70025729,60.00621784
69.46848199,54.19511149,59.76200686
69.30981990,53.94832762,59.64558319
69.18985849,53.76275729,59.51811750
69.04877787,53.56250000,59.39954974
69.06475129,53.57590051,59.41166381
69.33587050,53.90255146,59.65019297
69.55317324,54.21204974,59.87757290
69.64183105,54.38239708,59.94071612
69.72780875,54.51790309,60.00846913
69.82204117,54.68846484,60.02658662
69.95315180,54.94693396,60.15919811
70.23756432,55.23949400,60.46933962
70.42302744,55.53066038,60.59391081
70.64569039,55.80778302,60.71344340
70.81496569,56.08426244,60.81067753
71.04502573,56.35441681,61.03173242
71.19028731,56.60430961,61.14011578
71.37542882,56.89858491,61.28902230
71.56925386,57.15330189,61.44575472
71.76801029,57.45561750,61.51243568
71.96001286,57.75332333,61.73038165
72.17763722,58.02090480,61.90962693
72.30521012,58.26811750,62.00675386
72.50975557,58.56721698,62.18814322
72.65512436,58.83093911,62.29663379
72.83254717,59.13164666,62.48006003
73.02036878,59.40458834,62.63400515
73.17999571,59.68664237,62.72695111
73.03259005,59.53580617,62.62135506
72.44339623,58.79095197,62.07139794
72.10849057,58.25085763,61.73048885
72.00804031,58.02862350,61.66005575
71.94511149,57.93524871,61.68160377
71.87392796,57.78451973,61.58533448
71.75996998,57.64526158,61.45443825
71.80746141,57.67109777,61.51629503
71.97394940,57.87553602,61.74667667
72.06453688,58.03001715,61.79995712
72.05349485,58.07943825,61.81978988
72.05906947,58.08265437,61.76811750
72.14762007,58.17141938,61.81057033
72.23520583,58.34584048,61.93567753
72.36685249,58.52401372,62.07911664
72.52690823,58.73681389,62.16584477
72.66670240,58.92141938,62.31314322
72.75343053,59.13271870,62.39751286
72.89418954,59.28441252,62.51790309
72.95540309,59.46655232,62.61663808
73.09337479,59.64847770,62.70422384
73.23177530,59.85055746,62.78859348
73.35205832,60.07397084,62.88550600
73.47191252,60.28537736,63.04116638
73.57064751,60.48552744,63.15876930
73.70851201,60.70400943,63.28655660
73.84626930,60.89686964,63.37199828
73.93567753,61.03966552,63.47898799
73.69650515,60.76704545,63.28119640
73.18707118,60.00289451,62.81571612
72.94618353,59.57933105,62.50364494
72.92570755,59.36867496,62.47373499
72.89225986,59.28741424,62.42849485
72.81046312,59.12757290,62.31582333
72.77122642,59.01629503,62.22984563
72.84819897,59.07654374,62.36170669
72.93246141,59.19489708,62.47126930
72.96612350,59.23306175,62.49978559
73.02980274,59.23198971,62.52701544
73.02122642,59.24185249,62.54266724
73.08919383,59.31903945,62.59326758
73.17945969,59.43889365,62.65437393
73.27873070,59.56710978,62.72384220
73.38357633,59.71419383,62.78237564
73.49088765,59.90533877,62.89225986
73.54105918,60.02862350,62.98724271
73.65137221,60.13915094,63.11599485
73.74903516,60.30156518,63.21858919
73.85495283,60.41412950,63.24731990
73.96483705,60.55338765,63.34862779
74.05756861,60.73274014,63.48123928
74.15105060,60.84873499,63.51318611
74.24924957,61.03441252,63.63239708
74.43278302,61.22952401,63.72352058
74.45261578,61.32590051,63.81968268
74.15051458,60.85162950,63.49764151
73.65319468,59.98359777,62.95100772
73.37907376,59.52144082,62.72577187
73.30060034,59.20840480,62.61513722
73.18149657,58.95851201,62.50868353
73.00771870,58.68953688,62.37071184
72.90340909,58.43021012,62.26725986
72.92099057,58.42163379,62.30671098
72.97319897,58.51500858,62.32075472
73.01039880,58.55606775,62.38518439
72.97780875,58.52647942,62.34573328
72.95186535,58.49388937,62.30628216
72.99624786,58.49496141,62.35988422
73.06410806,58.56003431,62.38872213
73.18739280,58.72898799,62.52251286
73.29856346,58.86095626,62.62382075
73.40512436,58.98231132,62.68792882
73.49807033,59.13915094,62.79588336
73.60130789,59.24603345,62.86095626
73.67935249,59.32515009,62.94071612
73.73606346,59.48434820,62.95583190
73.87575043,59.67699400,63.07707976
73.98906518,59.82182676,63.20004288
74.11910377,59.99839194,63.31400086
74.27208405,60.19168096,63.46955403
74.37242710,60.32868782,63.47984563
74.48231132,60.50804031,63.63475557
74.58008148,60.60966981,63.69864923
74.71891081,60.78451973,63.79138079
74.82654374,61.00964837,63.90694683
74.83576329,60.99742710,63.89365352
74.26479417,60.23777873,63.41809605
73.68074614,59.26650943,62.88572041
73.36460120,58.70786878,62.59380360
73.18031732,58.37457118,62.41809605
73.00096484,58.13432676,62.28098199
72.77926672,57.79084477,62.09616209
72.59755575,57.49421098,62.00986278
72.59080189,57.46387221,62.00182247
72.63936535,57.54566895,62.03451973
72.70861921,57.60141509,62.08319039
72.68449828,57.60237993,62.14526158
72.67345626,57.60441681,62.13679245
72.72845197,57.63925815,62.20615352
72.83715695,57.76961835,62.25611063
72.94607633,57.94972127,62.34037307
73.08501286,58.13475557,62.46044168
73.22212693,58.33104631,62.61792453
73.31539451,58.48820755,62.65415952
73.46472985,58.65362350,62.78419811
73.59637650,58.79620497,62.87339194
73.69007290,59.04684820,62.94157376
73.86910377,59.21623070,63.09101630
74.01672384,59.42817324,63.20668954
74.16273585,59.62435678,63.32461407
74.28076758,59.79448971,63.44907804
74.45819039,60.00686106,63.62692967
74.60709691,60.24003002,63.74410377
74.77465695,60.45304460,63.83254717
74.86835334,60.63207547,63.87349914
75.01522298,60.82161235,64.01479417
75.14472556,61.04802744,64.15887650
75.32182676,61.26029160,64.28837907
75.20829760,61.12918096,64.19393225
74.45711835,60.11556604,63.49849914
73.77197684,59.12746569,62.96923242
73.47759434,58.62918096,62.73831475
73.38411235,58.44028731,62.62124786
73.26147084,58.25825472,62.53870069
73.09262436,58.00836192,62.40115780
73.00482419,57.87810892,62.33758576
73.04073756,57.95411664,62.38336192
73.13668525,58.07879503,62.52347770
73.15887650,58.11749571,62.56560892
73.15287307,58.11149228,62.54738422
73.17806604,58.13518439,62.54491852
73.23145369,58.23209691,62.61803173
73.41841767,58.43900086,62.67999571
73.59133791,58.69210978,62.91745283
73.77701544,58.94939966,63.05660377
73.94639794,59.18010292,63.19596913
74.03719983,59.34573328,63.27304889
74.18053173,59.56668096,63.37156947
74.29770583,59.75653945,63.50032161
74.44972127,59.94650515,63.60752573
74.61213551,60.13486278,63.73584906
74.78216123,60.36620926,63.87950257
74.90094340,60.58319039,63.95883362
75.04856346,60.80928388,64.15212264
75.20679674,61.02583619,64.24431818
75.39365352,61.31003431,64.41144940
75.50364494,61.48970840,64.49849914
75.10473842,60.99195969,64.11567324
74.28484134,59.85602487,63.42206261
73.74431818,59.00739708,62.95100772
73.54084477,58.61224271,62.78012436
73.43857204,58.51447256,62.78269726
73.33951544,58.35881218,62.67334906
73.21783877,58.19854202,62.56861063
73.27015437,58.24120926,62.68010292
73.36427959,58.39451115,62.78816467
73.38882933,58.44757719,62.80735420
73.42152659,58.45969125,62.78430532
73.40705403,58.45786878,62.79813465
73.44811321,58.50107204,62.84240995
73.58822899,58.70679674,62.90319468
73.76179245,58.93417667,63.08876501
73.94875643,59.20004288,63.18717839
74.11663808,59.41766724,63.31024871
74.25696827,59.61610206,63.48917238
74.38304031,59.80435249,63.57129074
74.52133362,59.98917238,63.68814322
74.57332762,60.09005146,63.69382504
74.67978130,60.30156518,63.79813465
74.82268439,60.47341338,63.92624357
74.93889365,60.66530875,64.04116638
75.11867496,60.88282590,64.17742281
74.99045883,60.71944683,63.99774871
74.12853774,59.63475557,63.28226844
73.32236278,58.40512436,62.64290309
72.83597770,57.73306175,62.24656947
72.67324185,57.48177530,62.15844768
72.56571612,57.28226844,62.12060463
72.41273585,57.05253002,61.97384220
72.33276158,56.92281304,61.90694683
72.42259863,57.06475129,62.07225557
72.59133791,57.26908233,62.19189537
72.62853774,57.31978988,62.20336621
72.59991424,57.30617496,62.15351630
72.59037307,57.29641938,62.16477273
72.66027015,57.39461835,62.24817753
72.82622213,57.65298027,62.36052744
73.02765866,57.92924528,62.48499142
73.20647513,58.17109777,62.63979417
73.36717410,58.44050172,62.77969554
73.53291166,58.64611921,62.86074185
73.63228988,58.79416810,62.94554031
73.74228130,58.98499142,63.04180961
73.86610206,59.15469554,63.16734563
74.03977273,59.38925815,63.32879503
74.19103774,59.59176672,63.41530875
74.32858062,59.77733705,63.53419811
74.47834477,60.00857633,63.69511149
74.64922813,60.23906518,63.80102916
74.71869640,60.46912521,63.84777015
74.50996998,60.14697684,63.62039022
73.45861921,58.78730703,62.80038593
72.53827187,57.46601630,62.07086192
72.10388079,56.77562178,61.66691681
71.97352058,56.49346055,61.64311750
71.86138508,56.29963551,61.50160806
71.65190823,56.03634220,61.35538165
71.56389365,55.91316467,61.26629503
71.67635077,56.05821184,61.43599914
71.87778731,56.33126072,61.63529160
71.92849485,56.45615352,61.70701115
71.95636792,56.48659949,61.69886364
72.00804031,56.58522727,61.74989280
72.13818611,56.77733705,61.89225986
72.33029588,57.01125643,62.06786021
72.47630789,57.26211407,62.14397513
72.67474271,57.52615780,62.33940823
72.83726415,57.77144082,62.39043739
73.00053602,58.00954117,62.50825472
73.18192539,58.24346055,62.65855489
73.33329760,58.45915523,62.74667667
73.48531304,58.65662521,62.87682247
73.63175386,58.89976415,62.98402659
73.80510292,59.15030017,63.13614923
73.95143654,59.38797170,63.21816038
74.12800172,59.63872213,63.38314751
74.29556175,59.86781732,63.59273156
74.43246141,60.08855060,63.61492281
74.64279588,60.37264151,63.85698971
74.79845626,60.60377358,63.91788165
74.58865780,60.43900086,63.74731990
73.51650943,59.00921955,62.89386792
72.43632075,57.45540309,61.99957118
71.80521012,56.52626501,61.54384648
71.59862779,56.19875643,61.41616638
71.50782590,56.03119640,61.33051029
71.33662093,55.80724700,61.14579760
71.23627787,55.66316467,61.13443396
71.32397084,55.80596055,61.23520583
71.52969554,56.06378645,61.39633362
71.62735849,56.21226415,61.48070326
71.59991424,56.21976844,61.48477702
71.59616209,56.27326329,61.50418096
71.71601630,56.41670240,61.58008148
71.85677530,56.64922813,61.73563465
72.07986707,56.92013293,61.83415523
72.28687822,57.21912521,62.02508576
72.47855918,57.46590909,62.12221269
72.62789451,57.68128216,62.23402659
72.75943396,57.88743568,62.40330189
72.87467839,58.08737136,62.50139365
73.01082762,58.27626501,62.52197684
73.16627358,58.48424099,62.65898370
73.30060034,58.67881647,62.75064322
73.42131218,58.89493997,62.87328473
73.62746569,59.14719125,63.01511578
73.80521012,59.44629074,63.20122213
73.94939966,59.68739280,63.31389365
73.44854202,59.07075472,62.85677530
72.32332762,57.58812178,61.90137221
71.42560034,56.30253002,61.27551458
71.02272727,55.71912521,61.00600343
70.94060892,55.61427959,60.95304460
70.92184820,55.53848628,60.88218268
70.84240995,55.41831046,60.81518010
70.91123499,55.47469983,60.87542882
71.02004717,55.70636792,61.03441252
71.09541166,55.82354202,61.06239280
71.06786021,55.81464408,61.04298885
71.04867067,55.79331046,61.00064322
71.08126072,55.83104631,61.06710978
71.24463979,56.03280446,61.18439108
71.42292024,56.31550172,61.36545883
71.59455403,56.53644940,61.48113208
71.74228130,56.75557461,61.58640652
71.90458834,56.96569468,61.67988851
71.98059605,57.13153945,61.76404374
72.07697256,57.24292453,61.80188679
72.20497427,57.41638079,61.92645798
72.28870069,57.54234563,61.96151372
72.41391509,57.77304889,62.14719125
72.57096913,57.95776158,62.24421098
72.34391081,57.69618353,61.96462264
71.27154803,56.33029588,61.12575043
70.21322899,54.88496998,60.25632504
69.73488422,54.19650515,59.94457547
69.57643654,53.92913808,59.75675386
69.44918525,53.79180961,59.71419383
69.34080189,53.57643654,59.58865780
69.31528731,53.55885506,59.57772298
69.50675386,53.81357204,59.77240566
69.62349914,54.03902230,59.91316467
69.65469554,54.06442967,59.82450686
69.61663808,54.07204117,59.85999142
69.61653087,54.09659091,59.87575043
69.76522298,54.29995712,59.98670669
69.96119211,54.54416810,60.20583190
70.17045455,54.80210120,60.33469125
70.34283877,55.04674099,60.47727273
70.50203688,55.27605060,60.59659091
70.56957547,55.40105060,60.62746569
70.68460549,55.55424528,60.72598628
70.79191681,55.77798027,60.80799743
70.96290738,55.98542024,60.95025729
71.09240995,56.19425386,61.07461407
71.25128645,56.37950257,61.15158662
71.37435678,56.56989708,61.26629503
71.56335763,56.82214837,61.46344340
71.73102487,57.05628216,61.56550172
71.53291166,56.86588765,61.36588765
70.41069897,55.42463551,60.40726844
69.27755146,53.84444683,59.52755146
68.69950686,53.03226844,59.04105918
68.45518868,52.72277015,58.82547170
68.29695540,52.46269297,58.71740995
68.08533448,52.22534305,58.52980274
67.95518868,52.08168954,58.46462264
68.08436964,52.24195969,58.59573328
68.36460120,52.57836621,58.84358919
68.44468268,52.77637221,58.88164666
68.50010720,52.84294597,58.94114494
68.50857633,52.91745283,58.96612350
68.66112779,53.08286878,59.09080189
68.80713979,53.31764580,59.21708834
69.05167238,53.57397084,59.40201544
69.19478988,53.86888937,59.53248285
69.37843053,54.07332762,59.69210978
69.52208405,54.38186106,59.82847341
69.68889365,54.55617496,59.93224700
69.81968268,54.77744425,60.02358491
70.02583619,55.02840909,60.16412950
70.16766724,55.26050600,60.27572899
70.35720412,55.48692110,60.46097770
70.52937393,55.74078045,60.60849057
70.66209262,55.98563465,60.73499142
70.84916381,56.22888079,60.82793739
70.97116209,56.47502144,61.01018439
71.11642367,56.64515437,61.08340480
71.26511578,56.89311750,61.19586192
71.42442110,57.15212264,61.30328045
71.45626072,57.21505146,61.33769297
70.66627358,56.22352058,60.65598199
69.42174099,54.64043739,59.65737564
68.67656518,53.52562178,59.03291166
68.40222985,53.10656089,58.78387650
68.24667667,52.92442110,58.70722556
68.05499571,52.70872642,58.57643654
67.89762007,52.49903516,58.39461835
67.98156089,52.58469125,58.43138937
68.24195969,52.91284305,58.75010720
68.38711407,53.13368353,58.85388079
68.39879931,53.18203259,58.89558319
68.44361063,53.24035163,58.92002573
68.55360206,53.38143225,59.00042882
68.66016295,53.62199828,59.09240995
68.85999142,53.90608919,59.28494854
69.10838336,54.18428388,59.45593911
69.29373928,54.44554031,59.68267581
69.43428388,54.67935249,59.74667667
69.61460120,54.93364065,59.82772298
69.75482419,55.15190823,59.99882075
69.92099057,55.35173671,60.10666810
70.07707976,55.59423242,60.21901801
70.26822470,55.85141509,60.39837050
70.42870926,56.07086192,60.39225986
70.61427959,56.36299314,60.64665523
70.99442539,56.85784734,60.92860206
71.47727273,57.53366209,61.29695540
71.75696827,57.94393225,61.51575901
71.39944254,57.60741852,61.21012007
70.32836621,56.22759434,60.35430961
69.37671527,54.88872213,59.61535163
68.91455832,54.24539022,59.23381218
68.75771870,53.96290738,59.13915094
68.60141509,53.80445969,58.96891081
68.53344768,53.65158662,58.95840480
68.65608919,53.77722985,59.04373928
69.00064322,54.23263293,59.40566038
69.15083619,54.46880360,59.48466981
69.14933533,54.48531304,59.49946398
69.11663808,54.44639794,59.49764151
69.12542882,54.44875643,59.44339623
69.27219125,54.61717410,59.51189966
69.42066895,54.82718696,59.64493997
69.58243997,55.05027873,59.87103345
69.69210978,55.29802744,59.89343911
69.85934820,55.47705832,60.00000000
70.00782590,55.70229417,60.18278302
70.10945540,55.83672813,60.21430103
70.24346055,55.97759434,60.34037307
70.35506003,56.14429674,60.37971698
70.50653945,56.34273156,60.45593911
70.65641081,56.55242281,60.65941252
70.82054031,56.79223842,60.75986278
70.55070755,56.49731990,60.52326329
69.55135077,55.19907804,59.69350343
68.54352487,53.92045455,58.94146655
68.15072899,53.24035163,58.55381647
67.95894082,52.94907804,58.39847770
67.79931389,52.70240137,58.30574614
67.67088336,52.48370497,58.17452830
67.69543310,52.49517581,58.19972127
67.90490995,52.72566467,58.41520154
68.00889794,52.92206261,58.51725986
68.00868353,52.93385506,58.51361492
67.95883362,52.92324185,58.49485420
67.98885077,52.97169811,58.55531732
68.12960978,53.12189108,58.67677959
68.35087907,53.37575043,58.81421527
68.53044597,53.65780446,58.99506861
68.75664666,53.92002573,59.17367067
68.91262864,54.10881218,59.28955832
69.00289451,54.30478130,59.37060463
69.13561321,54.48917238,59.48874357
69.21783877,54.64536878,59.60613208
69.38036021,54.82804460,59.63786449
69.49946398,55.01597341,59.74646226
69.66959691,55.19232419,59.86813894
69.83919383,55.44039451,60.08104631
70.00021441,55.65137221,60.09691252
70.02229846,55.74463979,60.18396226
69.24892796,54.80060034,59.43010292
68.05306604,53.22716552,58.56335763
67.31668096,52.15866209,57.90951973
67.02133362,51.69543310,57.64826329
66.85463122,51.39172384,57.56217839
66.63293310,51.11749571,57.34948542
66.42945969,50.86728130,57.20218696
66.50900515,50.92367067,57.32997427
66.73992281,51.23542024,57.51951115
66.91102058,51.44832762,57.61556604
66.93557033,51.54856346,57.65641081
66.99324614,51.58608491,57.66219983
67.03987993,51.67817324,57.73970840
67.21805317,51.95240137,57.91788165
67.41884648,52.18299743,58.06743139
67.59584048,52.45840480,58.21848199
67.79470412,52.72051887,58.41069897
67.95079331,52.92742281,58.53848628
68.06753859,53.11470840,58.59734134
68.20422384,53.26918954,58.70593911
68.35248714,53.47641509,58.82439966
68.48659949,53.67806604,58.95400943
68.62532161,53.92635077,59.05220840
68.77369211,54.12639365,59.22309177
68.93825043,54.35291595,59.38400515
69.11202830,54.58737136,59.44478988
69.21976844,54.79180961,59.50964837
69.41713122,55.02948113,59.70808319
69.63829331,55.27722985,59.84176672
69.81957547,55.47737993,59.95057890
69.47084048,55.06432247,59.65780446
68.18181818,53.52808748,58.68932247
67.10216552,52.05821184,57.73895798
66.61084906,51.25600343,57.38829331
66.42527873,50.99882075,57.20207976
66.21387221,50.76833190,57.09144511
66.00300172,50.46590909,56.82354202
65.91198542,50.35173671,56.80328045
66.12478559,50.57032590,56.98927959
66.36438679,50.90212264,57.19328902
66.45100772,51.06507290,57.32858062
66.41273585,51.11663808,57.29223842
66.41841767,51.12231990,57.27905232
66.50621784,51.20390223,57.34755575
66.67763722,51.42506432,57.49388937
66.85388079,51.64011578,57.57536449
67.02337050,51.92903087,57.75986278
67.21440823,52.18674957,57.94468268
67.38915094,52.40930532,58.08104631
67.54995712,52.64708405,58.21848199
67.71119211,52.90523156,58.35720412
67.90512436,53.14440395,58.47502144
68.08029588,53.36631647,58.62575043
68.25921955,53.60934820,58.79288165
68.41370069,53.79191681,58.93535592
68.57204117,54.01650943,59.01843911
68.77262007,54.26468696,59.21322899
68.90458834,54.50064322,59.32354202
69.11042024,54.73992281,59.48670669
69.13925815,54.82750858,59.49110206
68.41595197,53.96612350,58.84369640
67.20518868,52.36106346,57.90823328
66.45154374,51.31475129,57.28752144
66.18707118,50.90426672,57.01211407
66.12081904,50.81207118,57.03291166
66.00278731,50.65437393,56.88271870
65.92720840,50.52111921,56.86095626
66.10420240,50.73563465,56.97169811
66.37124786,51.14011578,57.21301458
66.53623499,51.34927101,57.41123499
66.53462693,51.37167667,57.38925815
66.54384648,51.40876930,57.40362350
66.64290309,51.54234563,57.47823756
66.85666810,51.78376930,57.66927530
67.08844340,52.09101630,57.88046741
67.33876501,52.38100343,58.06260720
67.53141081,52.61824614,58.21022727
67.69264580,52.88668525,58.31528731
67.83469125,53.14279588,58.46869640
67.96708834,53.30006432,58.61202830
68.08533448,53.48113208,58.71891081
68.21998285,53.64408233,58.84777015
68.38518439,53.85237993,58.90276587
68.56496569,54.06861063,59.06067753
68.79481132,54.32011149,59.22169811
68.91091338,54.53934391,59.29599057
68.48852916,54.03055317,58.94328902
67.30853345,52.53730703,57.94682676
66.39569039,51.35452401,57.22116209
66.09648370,50.80960549,56.92860206
66.02808748,50.71826758,56.99421098
65.96548027,50.60849057,56.91187822
65.86835334,50.49228130,56.81646655
65.98831475,50.63861492,56.92034734
66.26265009,51.00300172,57.14322470
66.42892367,51.22287736,57.36310034
66.46612350,51.26179245,57.32997427
66.48520583,51.26029160,57.31153516
66.52229846,51.35570326,57.35141509
66.75439537,51.64869211,57.56957547
66.97641509,51.91916810,57.75300172
67.20465266,52.20379503,57.91991852
67.38143225,52.45926244,58.06303602
67.50911235,52.66305746,58.17613636
67.63368353,52.81485849,58.29620497
67.77369211,53.02347770,58.39504717
67.92377787,53.20486707,58.58051029
68.03762864,53.38582762,58.58415523
68.15823328,53.56560892,58.70518868
68.33361921,53.79395369,58.85162950
68.54063036,54.03098199,59.02690823
68.74142367,54.27530017,59.23220412
68.60388079,54.12360635,59.01147084
67.50460978,52.77883791,58.14783448
66.41530875,51.30317324,57.23649228
65.88389794,50.54084477,56.74646226
65.73992281,50.28537736,56.67774443
65.61835334,50.12928816,56.60999142
65.41477273,49.85688250,56.41262864
65.33126072,49.75964837,56.34176672
65.59240995,50.06282161,56.58426244
65.87242710,50.46569468,56.90737564
66.04170240,50.68278302,57.01168525
66.08319039,50.73434820,56.93417667
66.14558319,50.83940823,56.99078045
66.30135077,51.01661664,57.15383791
66.48274014,51.25611063,57.30070755
66.66766724,51.49549743,57.48542024
66.82515009,51.74560463,57.60666810
67.04952830,52.04674099,57.77594340
67.20529588,52.25482419,57.88732847
67.33479846,52.46687393,58.00310892
67.50246569,52.68900086,58.15298027
67.69361063,52.90844768,58.28966552
67.82986707,53.11310034,58.40533877
67.98606346,53.32761578,58.58211835
68.17785163,53.55885506,58.77840909
68.34701973,53.78912950,58.84058748
68.49646226,53.98638508,59.00611063
68.65619640,54.20229417,59.07686535
68.83833619,54.47126930,59.25750429
69.03987993,54.72577187,59.38078902
68.95100772,54.66777444,59.29277444
67.83994425,53.32879503,58.40083619
66.58544168,51.69671955,57.33179674
65.92356346,50.77262007,56.76940395
65.77658662,50.47662950,56.68910806
65.66091338,50.30049314,56.57665094
65.45808319,50.07386364,56.39762007
65.35902659,49.90555317,56.33243997
65.48102487,50.11695969,56.46880360
65.80435249,50.50353774,56.76404374
66.00568182,50.78569897,56.90040738
66.01961835,50.85516724,56.82515009
66.06132075,50.96912521,56.94018010
66.20304460,51.09283877,57.10784734
66.35323756,51.31743139,57.21966123
66.59455403,51.61856775,57.38271870
66.85538165,51.91198542,57.58780017
67.07064751,52.23852916,57.78698542
67.22491424,52.48992281,57.97684391
67.42828045,52.72952401,58.07665094
67.59509005,52.92742281,58.21687393
67.78162521,53.16884648,58.41584477
67.88743568,53.37607204,58.50107204
68.10720412,53.61385077,58.59584048
68.29545455,53.88250429,58.77572899
68.45551029,54.14847770,58.93256861
68.63003859,54.37896655,59.01468696
68.81786021,54.60559605,59.18921527
69.00986278,54.84798456,59.30767581
69.17913808,55.12296312,59.43835763
69.32654374,55.30896226,59.58597770
68.70336621,54.62446398,59.05842624
67.40566038,52.97084048,58.01779588
66.46022727,51.71022727,57.26790309
66.13443396,51.24849914,56.99442539
66.06625214,51.13657804,56.98627787
65.94596913,51.01307890,56.87821612
65.75975557,50.74153087,56.73531304
65.76425815,50.75225129,56.72973842
65.99785592,51.02165523,56.91831046
66.13882933,51.25418096,57.05949828
66.17506432,51.24989280,57.07300600
66.18664237,51.27669383,57.06828902
66.25846913,51.37274871,57.13797170
66.42367067,51.61620926,57.32397084
66.61899657,51.87778731,57.50085763
66.85559605,52.15255146,57.68664237
67.01125643,52.37832333,57.79470412
67.19296741,52.60613208,57.94125214
67.41477273,52.83093911,58.08158233
67.51618782,53.01511578,58.18449828
67.67109777,53.20411664,58.34991424
67.80638937,53.41080617,58.45518868
67.96708834,53.60109348,58.58737136
68.17367067,53.82268439,58.66573756
68.33276158,54.06217839,58.86299314
68.55981990,54.33426244,59.01801029
68.57225557,54.43524871,59.01243568
67.80939108,53.51286449,58.30188679
66.59841338,51.97920240,57.40115780
65.87800172,51.00321612,56.78859348
65.66777444,50.70207976,56.64890652
65.68299743,50.67013293,56.71408662
65.60420240,50.62156947,56.64065180
65.57600772,50.52669383,56.55971269
65.80049314,50.73981561,56.78569897
66.01629503,51.06132075,56.95668954
66.08544168,51.17377787,57.03269726
66.10849057,51.19918525,57.02894511
66.12424957,51.23016724,57.00975557
66.24485420,51.39193825,57.15008576
66.45132933,51.66123499,57.34669811
66.69146655,51.92367067,57.49892796
66.90298027,52.19950686,57.68900086
67.06132075,52.39172384,57.86106346
67.20068611,52.58104631,57.93674957
67.29995712,52.73349057,58.01072041
67.43439108,52.88078902,58.14215266
67.62339194,53.09144511,58.25761149
67.73370497,53.26886792,58.37907376
67.90287307,53.47169811,58.46740995
68.07954545,53.72620069,58.62885935
68.22223413,53.93342624,58.76704545
67.76072041,53.40866209,58.34498285
66.56861063,51.92216981,57.39558319
65.61342196,50.60763293,56.61320755
65.25278731,50.04695540,56.26372213
65.12596484,49.89719125,56.17313465
65.02369211,49.72995283,56.13518439
64.89333190,49.52669383,56.02347770
64.92677959,49.57793739,56.06035592
65.23542024,49.93353345,56.29609777
65.49817753,50.25353774,56.50975557
65.54684820,50.38668525,56.57300600
65.56228559,50.43364065,56.56228559
65.61181389,50.50353774,56.57750858
65.74774871,50.70379503,56.72973842
65.94671955,50.94028731,56.85924099
66.16595197,51.24528302,57.03108919
66.35602487,51.52004717,57.19607633
66.54105918,51.75546741,57.31464408
66.64890652,51.98659949,57.42377787
66.87328473,52.19554031,57.68117496
67.05113636,52.38711407,57.73359777
67.23499142,52.63164666,57.92302744
67.40437393,52.88357633,58.01672384
67.60838336,53.10645369,58.21365780
67.78902230,53.33940823,58.39172384
67.96012007,53.57289880,58.51029160
68.12607204,53.82289880,58.58876501
68.32997427,54.10398799,58.76972556
68.50203688,54.32364923,58.83608491
67.93364065,53.66112779,58.42978130
66.64033019,52.09551887,57.37060463
65.81646655,50.87757290,56.68331904
65.50096484,50.46987564,56.39268868
65.34348199,50.27444254,56.27594340
65.19629074,50.07343482,56.19907804
65.04813465,49.88968696,56.05285163
65.06914666,49.89976415,56.10602487
65.40319468,50.26254288,56.34444683
65.66498714,50.58694254,56.54363208
65.79180961,50.77787307,56.67795883
65.83672813,50.83394082,56.69114494
65.97502144,51.05992710,56.78977273
66.15383791,51.27905232,56.97180532
66.41144940,51.56732419,57.14386792
66.61492281,51.87071184,57.33747856
66.82740137,52.16059177,57.53151801
67.02401372,52.44339623,57.72126930
67.22469983,52.70840480,57.88807890
67.39665523,52.93760720,57.91895369
67.57729417,53.21944683,58.08158233
67.81550172,53.51039880,58.27733705
68.02412093,53.78870069,58.49067324
68.26918954,54.08394082,58.60409520
68.47630789,54.37424957,58.80842624
68.68074614,54.65566038,58.89279588
68.89054460,54.93707118,59.12146226
69.08640652,55.26436535,59.26993997
69.32429245,55.52990995,59.40855489
69.50868353,55.80499571,59.54641938
69.15608919,55.46955403,59.24699828
68.21976844,54.31689537,58.42452830
67.53987993,53.34305317,57.88400515
67.31035592,53.01468696,57.69693396
67.28301887,52.93053173,57.70840480
67.19746998,52.85270154,57.71076329
67.10334477,52.72255575,57.65458834
67.16423671,52.77465695,57.66466552
67.39590480,53.05821184,57.89376072
67.56207118,53.29170240,58.02562178
67.59605489,53.34519726,58.01329331
67.62532161,53.38003859,57.98938679
67.72566467,53.51918954,58.07086192
67.88089623,53.72845197,58.18492710
68.08597770,53.97791595,58.39408233
68.24410377,54.26147084,58.52454974
68.46397942,54.51736707,58.70347341
68.66262864,54.77690823,58.87617925
68.82868782,55.01114923,58.96505146
68.99646226,55.22716552,59.10666810
69.15319468,55.46580189,59.22973842
69.27840909,55.74882075,59.27090480
69.45690395,55.97620069,59.50664666
69.65190823,56.21065609,59.64118782
69.81743139,56.50117925,59.78376930
69.96001286,56.78462693,59.94478988
70.06400086,56.99281732,60.06099914
69.63078902,56.42645798,59.63057461
68.91241424,55.44736278,58.96644511
68.57611492,54.85763293,58.62778731
68.44414666,54.65791166,58.51382933
68.47330617,54.65662521,58.55070755
68.43074614,54.56067753,58.55381647
68.39000858,54.47298456,58.53945111
68.51500858,54.59884220,58.65866209
68.67549314,54.82707976,58.74024443
68.70947684,54.87328473,58.78173242
68.63765009,54.83147513,58.76586621
68.65834048,54.86095626,58.75996998
68.74463979,54.98327616,58.82246998
68.89633362,55.15984134,58.92120497
69.05606775,55.36288593,59.08629931
69.14611921,55.57729417,59.17313465
69.29566895,55.74656947,59.26007719
69.42506432,55.92056175,59.40512436
69.49678388,56.02873070,59.44103774
69.58855060,56.18353345,59.55102916
69.63271870,56.34048027,59.65330189
69.76436535,56.50728988,59.76500858
69.93546312,56.70304460,59.86878216
70.02776587,56.89161664,59.99946398
70.08994425,57.02090480,60.01661664
69.65834048,56.44929245,59.64140223
68.99699828,55.45240137,58.95433105
68.60581046,54.79513293,58.59358919
68.43685678,54.51254288,58.48831475
68.33704974,54.31925386,58.38743568
68.16069897,54.08372642,58.27240566
68.04213122,53.88711407,58.22373499
68.06325043,53.92024014,58.22298456
68.19532590,54.03044597,58.36084906
68.24388937,54.11310034,58.38239708
68.24292453,54.11084906,58.38786449
68.24957118,54.08940823,58.36963979
68.31464408,54.15426672,58.42978130
68.41359348,54.30338765,58.53516295
68.57268439,54.45347341,58.63850772
68.71140652,54.62156947,58.80831904
68.81057033,54.79148799,58.90555317
68.90512436,54.95079331,58.91305746
69.02969554,55.09058748,59.06528731
69.12296312,55.19693396,59.10195111
69.24560463,55.35409520,59.20100772
69.37371355,55.54502573,59.32547170
69.49078045,55.71955403,59.36985420
69.59412521,55.90330189,59.44554031
69.72716552,56.05713979,59.55778302
69.83587050,56.23123928,59.67377787
69.98724271,56.42613636,59.81421527
70.12017581,56.61138508,59.94864923
70.09251715,56.62853774,59.99517581
69.39204545,55.69693396,59.24217410
68.60109348,54.53569897,58.54856346
68.15040738,53.88389794,58.33008148
67.96601630,53.58072470,58.13840051
67.77948113,53.32707976,58.00268010
67.51372213,52.98220412,57.76715266
67.33747856,52.68739280,57.63915094
67.35538165,52.68364065,57.66198542
67.41906089,52.75503859,57.68664237
67.49078045,52.86363636,57.77680103
67.47845197,52.85323756,57.77176244
67.46108491,52.85688250,57.79063036
67.51811750,52.93021012,57.87124786
67.62575043,53.07000429,57.96215695
67.81110635,53.30488851,58.07547170
67.95926244,53.49056604,58.22126930
68.12242710,53.70604631,58.34433962
68.27219125,53.87039022,58.43171098
68.39536878,54.04009434,58.58319039
68.50536021,54.20111492,58.59969983
68.66241424,54.39397513,58.72845197
68.80531732,54.59090909,58.84262436
68.95872642,54.78527015,59.01618782
69.06335763,54.97523585,59.06464408
69.26629503,55.19596913,59.21955403
69.42795883,55.42281304,59.36320755
69.56582333,55.63722127,59.44018010
69.70175815,55.81753859,59.53301887
69.83769297,56.02144082,59.70561750
70.00493139,56.28666381,59.82654374
70.11599485,56.42345626,59.87993139
69.58479846,55.82236278,59.39118782
68.71280017,54.61245712,58.73316895
68.12960978,53.77798027,58.21472985
67.96837479,53.51533019,58.10988422
67.87500000,53.36663808,58.06303602
67.75289451,53.17056175,57.97373499
67.58554889,52.93460549,57.84240995
67.55295883,52.92281304,57.85120069
67.68621355,53.07772298,57.96665952
67.78848628,53.22866638,58.09123070
67.78527015,53.21987564,58.03119640
67.76393654,53.20990566,58.02830189
67.82772298,53.27069039,58.11631647
67.93299743,53.41048456,58.20315180
68.11031304,53.64075901,58.39354631
68.28291166,53.87231990,58.44629074
68.43117496,54.09283877,58.54095197
68.58329760,54.28248285,58.72630789
68.71333619,54.47169811,58.76522298
68.85120069,54.64922813,58.93739280
68.94489708,54.78280446,59.01307890
69.11771012,54.96848199,59.10120069
69.24796312,55.15512436,59.18085334
69.40544597,55.39944254,59.32439966
69.54706261,55.58029588,59.45379503
69.69972127,55.78441252,59.55563894
69.89022298,56.01179245,59.71805317
69.99421098,56.16766724,59.81003431
69.46226415,55.55896226,59.28709262
68.58297599,54.37457118,58.61020583
68.00986278,53.60098628,58.17860206
67.83651372,53.30070755,58.01833190
67.74078045,53.20990566,57.96119211
67.57429245,53.00182247,57.89783448
67.47941681,52.88014580,57.85270154
67.56871784,52.94414666,57.91069897
67.65801887,53.11771012,57.98370497
67.67731561,53.11513722,58.00578902
67.63454117,53.05692539,57.90683962
67.60698971,53.02294168,57.95304460
67.64118782,53.08822899,58.00804031
67.80167238,53.28451973,58.07397084
67.96751715,53.50310892,58.23338336
68.14225986,53.72030446,58.37467839
68.29545455,53.92924528,58.46569468
68.43653516,54.13529160,58.59948542
68.55317324,54.26822470,58.67109777
68.66863208,54.42484991,58.79363208
68.78312607,54.58651372,58.89847770
68.90844768,54.73799314,58.96183533
69.08018868,54.95347341,59.11556604
69.25568182,55.20936964,59.24946398
69.33458405,55.33029588,59.28741424
68.88614923,54.77229846,58.81903945
67.88915094,53.49249571,58.14386792
67.17495712,52.55553173,57.54824185
66.88464837,52.10205832,57.34240995
66.73327616,51.86084906,57.16466552
66.50857633,51.58083190,57.05188679
66.33394082,51.33951544,56.87617925
66.35345197,51.33458405,56.93299743
66.53419811,51.58115352,57.07965266
66.60484563,51.74399657,57.21869640
66.62006861,51.76543739,57.19125214
66.62542882,51.79138079,57.13614923
66.69018010,51.83983705,57.21505146
66.84734134,52.05167238,57.42066895
67.03880789,52.28709262,57.54952830
67.17141938,52.50653945,57.67227702
67.37564322,52.72277015,57.84905660
67.48231132,52.93835763,57.92828045
67.65737564,53.13100343,58.04909949
67.84584048,53.35527444,58.14772727
68.01211407,53.52798027,58.25289451
68.16316467,53.74228130,58.33597770
68.34691252,53.95754717,58.49228130
68.45872642,54.14783448,58.65448113
68.61074185,54.38411235,58.83051029
68.84927101,54.67388508,58.92066895
69.03473413,54.91037736,59.12178388
69.11963979,55.08662093,59.18803602
68.53698542,54.32000429,58.62339194
67.43557033,52.92570755,57.77883791
66.72244854,51.89697684,57.16219983
66.42227702,51.47073328,56.92099057
66.24978559,51.24892796,56.78687822
66.08983705,51.01350772,56.68138937
65.88304031,50.78698542,56.53955832
65.88089623,50.76768868,56.52176244
66.04920669,51.00418096,56.75010720
66.27058319,51.24142367,56.88014580
66.31657376,51.32364923,56.94950686
66.38765009,51.40051458,56.99828473
66.46376501,51.49721269,57.01736707
66.60420240,51.73456261,57.17924528
66.81464408,51.97845197,57.32043310
67.05628216,52.26018439,57.54256003
67.23327616,52.53108919,57.69661235
67.43653516,52.79288165,57.85656089
67.62049743,53.04545455,57.96483705
67.75964837,53.23220412,58.08319039
67.97963122,53.47963122,58.27915952
68.15748285,53.71987564,58.44350343
68.34959262,53.97630789,58.57665094
68.55681818,54.23177530,58.73885077
68.75675386,54.51768868,58.85452401
68.96140652,54.74463979,59.08490566
69.17024014,55.04674099,59.19746998
69.34048027,55.30724700,59.38121784
69.57161235,55.56174957,59.48070326
69.78902230,55.82204117,59.63336192
69.92131218,56.03451973,59.77401372
69.47416381,55.50096484,59.33201115
68.41337907,54.09155232,58.52658662
67.62092624,53.05360206,57.91209262
67.29802744,52.60377358,57.64837050
67.22909520,52.46644511,57.59852058
67.10602487,52.30092196,57.57129074
66.91788165,52.07890223,57.36685249
66.89386792,52.07268439,57.35849057
67.09519726,52.29695540,57.57397084
67.28183962,52.51897513,57.75868353
67.33136792,52.60430961,57.74281732
67.36588765,52.63861492,57.82257719
67.42345626,52.70433105,57.83361921
67.60999142,52.93203259,57.99249571
67.78741424,53.21644511,58.10409520
68.00707547,53.49914237,58.28237564
68.23574185,53.75889794,58.46558748
68.42677959,53.98231132,58.61567324
68.61653087,54.26147084,58.84123070
68.79309605,54.49378216,58.91487993
68.97845197,54.71087050,59.08222556
69.14719125,54.89954974,59.16048456
69.34691252,55.17474271,59.35999142
69.52497856,55.43085334,59.44307461
69.70797599,55.67452830,59.59777015
69.90566038,55.92624357,59.78730703
70.08865780,56.19972127,59.91820326
70.04877787,56.13925815,59.85430961
69.18085334,55.10216552,59.17592196
68.22212693,53.85055746,58.42624357
67.75107204,53.17259863,58.07697256
67.62435678,52.93760720,57.93589194
67.57075472,52.85849057,57.92216981
67.48263293,52.74206690,57.86835334
67.46365780,52.72523585,57.86395798
67.61588765,52.89161664,57.97566467
67.73981561,53.07257719,58.11567324
67.76222127,53.09626930,58.11556604
67.75289451,53.07772298,58.10581046
67.77883791,53.08758576,58.11888937
67.90405232,53.24646226,58.23166810
68.12114065,53.51822470,58.39343911
68.31121355,53.76211407,58.54127358
68.48381218,54.00696827,58.67613636
68.70786878,54.23874357,58.86481561
68.79416810,54.44189537,58.92645798
68.93224700,54.58919383,59.02165523
69.08158233,54.77840909,59.15083619
69.24217410,54.99496141,59.21322899
69.40030017,55.19532590,59.38143225
69.56743139,55.41584477,59.51725986
69.50589623,55.31292882,59.46665952
68.57182676,54.19575472,58.68181818
67.56014151,52.91091338,57.83694254
67.05885506,52.20400943,57.46858919
66.85774014,51.89697684,57.29513293
66.76790309,51.78334048,57.26318611
66.62060463,51.57150515,57.13754288
66.63400515,51.56024871,57.13700686
66.77626501,51.79063036,57.30885506
66.92442110,52.02776587,57.47201973
67.01393654,52.08790738,57.49335334
67.02347770,52.11545883,57.50225129
67.07032590,52.15544597,57.55896226
67.20090051,52.33512007,57.69018010
67.40340909,52.58436964,57.86674528
67.62339194,52.86567324,58.03119640
67.83018868,53.13743568,58.22855918
67.99817753,53.36159949,58.21151372
68.12692967,53.54266724,58.44082333
68.29727702,53.72652230,58.55370926
68.42495712,53.91402230,58.65930532
68.55917667,54.11427959,58.69596913
68.71676672,54.31732419,58.89901372
68.86503002,54.48488422,58.95722556
69.07054031,54.73906518,59.12907376
69.17495712,54.91938250,59.15415952
68.63036021,54.24871355,58.71998285
67.45358062,52.75718268,57.82836621
66.56442967,51.52240566,57.06228559
66.19897084,50.99721269,56.70840480
66.02347770,50.79792024,56.61159949
65.85430961,50.59509005,56.50675386
65.68299743,50.40533877,56.37660806
65.73220412,50.44039451,56.42838765
65.96290738,50.73542024,56.67667238
66.17527873,50.98445540,56.86438679
66.26758148,51.15973413,56.91016295
66.27873070,51.18460549,56.94789880
66.39440395,51.31657376,57.04406089
66.56314322,51.49453259,57.13196827
66.78998714,51.80949828,57.35302316
67.04920669,52.07815180,57.59080189
67.26918954,52.37317753,57.76747427
67.45819039,52.65158662,57.91873928
67.66498714,52.91412950,58.06207118
67.83190395,53.12757290,58.24807033
67.97169811,53.33597770,58.35441681
68.12178388,53.57761578,58.45583190
68.33126072,53.82933105,58.55081475
68.51865352,54.07804460,58.74078045
68.69822041,54.29105918,58.87639365
68.86728130,54.48992281,58.95347341
69.02647942,54.72630789,59.13218268
69.24496141,54.99153087,59.30821184
69.30177959,55.07086192,59.32300600
68.42356346,54.05713979,58.63132504
67.08040309,52.35141509,57.54759863
66.28602058,51.21076329,56.84412521
65.98584906,50.80274443,56.59884220
65.89483276,50.68685678,56.53698542
65.76575901,50.54556175,56.47973842
65.59401801,50.35130789,56.33951544
65.66841767,50.39933533,56.38968696
65.94907804,50.71858919,56.69714837
66.16177101,50.98081046,56.82171955
66.19575472,51.06346484,56.87500000
66.22545026,51.09080189,56.89676244
66.31400086,51.28119640,57.01768868
66.48702830,51.46751715,57.13882933
66.68503431,51.75214408,57.30188679
66.93289022,52.04781304,57.51243568
67.15651801,52.32568611,57.69018010
67.29363208,52.58951544,57.86310034
67.51608062,52.83726415,57.94596913
67.65909091,53.04202401,58.11492281
67.82933105,53.24185249,58.27358491
68.00085763,53.48670669,58.34240995
68.18149657,53.68835763,58.48466981
68.32364923,53.92742281,58.61588765
68.48970840,54.12714408,58.76565180
68.66595197,54.36942539,58.89236707
68.85881218,54.60473842,58.97437822
68.88689966,54.66455832,59.06314322
67.96826758,53.63100343,58.32311321
66.71140652,51.98113208,57.22620069
65.96816038,50.95057890,56.57879503
65.70518868,50.63529160,56.47191252
65.61320755,50.58040309,56.41595197
65.59444683,50.53119640,56.40683962
65.56475129,50.46269297,56.41166381
65.72909520,50.71730274,56.57729417
65.92860206,50.98563465,56.72384220
66.05092196,51.11588765,56.80521012
66.08629931,51.13196827,56.83415523
66.07997427,51.14515437,56.83168954
66.13432676,51.24753431,56.88046741
66.37178388,51.51307890,57.05403087
66.58061750,51.79759863,57.20668954
66.80349485,52.10430961,57.40598199
66.97448542,52.34433962,57.57289880
67.17120497,52.59487564,57.70122213
67.29577616,52.75053602,57.79534734
67.41906089,52.92227702,57.88625643
67.51854631,53.06743139,58.04899228
67.65876930,53.28291166,58.09551887
67.84401801,53.47394940,58.23445540
68.02862350,53.70508148,58.38132504
68.11331475,53.81571612,58.45786878
67.30499571,52.89054460,57.78119640
65.99035163,51.35313036,56.70840480
65.23016724,50.27948113,56.09701973
64.97684391,49.92024014,55.91166381
64.93021012,49.86159949,55.86717410
64.87832333,49.72416381,55.81014151
64.80617496,49.67710120,55.79502573
65.01736707,49.93374786,55.97062607
65.29266724,50.27229846,56.20390223
65.35988422,50.37489280,56.21901801
65.31689537,50.35077187,56.25300172
65.34112350,50.38400515,56.26029160
65.44500429,50.52240566,56.34616209
65.68406947,50.81764580,56.53784305
65.89933533,51.07064751,56.70486707
66.16316467,51.40094340,56.89815609
66.37864494,51.67174099,57.09584048
66.54749142,51.86824614,57.23295455
66.70057890,52.09401801,57.40512436
66.84208834,52.30713979,57.47523585
67.01372213,52.52487136,57.64108062
67.22159091,52.74174528,57.78441252
67.45015009,53.03076758,57.94564751
67.66219983,53.29213122,58.11159949
67.43964408,53.04770583,57.81893225
66.31764580,51.74710549,56.90919811
65.32032590,50.41873928,56.05896226
64.85130789,49.82021870,55.68557033
64.74635506,49.67002573,55.65265866
64.67720840,49.55242281,55.62596484
64.56507290,49.39311750,55.45186535
64.60098628,49.39622642,55.52808748
64.85784734,49.73863636,55.77937393
65.13486278,50.09605489,55.98006003
65.29813465,50.32429245,56.08951544
65.38121784,50.40694683,56.14815609
65.49024443,50.57043310,56.23123928
65.69318182,50.83211835,56.38357633
65.93696398,51.14108062,56.64343911
66.18203259,51.46226415,56.84133791
66.45529588,51.79448971,57.05713979
66.62521441,52.11835334,57.16423671
66.90448113,52.37832333,57.33887221
67.12039022,52.68878645,57.49388937
67.40040738,52.98960120,57.65984134
67.62821612,53.31646655,57.92152659
67.84305317,53.57525729,58.02722985
68.03612779,53.86052744,58.19629074
68.27990995,54.18707118,58.38325472
68.51790309,54.51983276,58.55692539
68.75921955,54.80574614,58.73006003
68.34659091,54.35366638,58.35774014
67.45819039,53.23949400,57.61899657
66.88882933,52.51833190,57.12682247
66.69511149,52.24228130,57.02165523
66.59669811,52.13100343,56.95819039
66.49174528,51.99796312,56.87146226
66.33083190,51.80231561,56.78409091
66.37553602,51.87146226,56.80971269
66.60891938,52.14515437,57.00857633
66.79556175,52.38882933,57.15126501
66.89022298,52.52379931,57.28066038
66.95722556,52.64011578,57.28569897
67.14461835,52.83222556,57.38239708
67.26382933,53.05842624,57.55070755
67.47277015,53.31925386,57.77551458
67.67999571,53.58887221,57.82257719
67.85838336,53.84616209,57.99195969
68.04063036,54.10581046,58.14590480
68.23949400,54.33619211,58.30703259
68.42495712,54.57375643,58.47941681
68.57622213,54.78934391,58.59766295
68.68439108,55.04223842,58.64751286
68.86931818,55.27240566,58.77969554
68.98338336,55.50761149,58.93664237
69.12457118,55.74099485,59.06475129
69.25664666,56.00728988,59.17324185
69.40834048,56.21430103,59.37939537
69.62639365,56.50203688,59.51725986
69.71226415,56.70904803,59.59862779
69.18728559,56.05949828,59.10195111
68.51779588,55.18246141,58.48434820
68.28173242,54.76114923,58.27701544
68.28666381,54.71290738,58.27208405
68.27969554,54.69221698,58.29513293
68.22469983,54.60463122,58.26329331
68.17903087,54.50750429,58.16959691
68.26297170,54.62274871,58.29191681
