R,G,B
73.02154803,60.37639365,65.72673671
73.12178388,60.43910806,65.79138079
73.22759434,60.55756861,65.80928388
73.38572041,60.68825043,65.95947684
73.41284305,60.77283448,65.97759434
73.48006003,60.95711835,66.08597770
73.59005146,61.07182676,66.11427959
73.58158233,61.29256003,66.15555317
73.69232419,61.41766724,66.20047170
73.81710978,61.57611492,66.31753859
73.92988851,61.73670669,66.38572041
74.05510292,61.87500000,66.49463979
74.18942967,62.05177959,66.62596484
74.29159520,62.22148370,66.67152659
74.38325472,62.36760292,66.80864065
74.48456261,62.48649228,66.88464837
74.57139794,62.62671527,66.96805317
74.65930532,62.74871355,67.11728130
74.77272727,62.94811321,67.18910806
74.85388079,63.05113636,67.22909520
74.92613636,63.17699400,67.29041595
75.02508576,63.31325043,67.38593482
75.04631218,63.36513722,67.40566038
74.59101630,62.86781732,66.98295455
73.88604202,62.03762864,66.40105060
73.50182247,61.40555317,66.06057033
73.35034305,61.17817324,65.92924528
73.32697256,61.13400515,65.92560034
73.32900943,61.11610206,65.96108491
73.33254717,61.09991424,66.00514580
73.31282161,61.07611492,65.96162093
72.88604202,60.61417238,65.35752573
72.88797170,60.59894940,65.32536449
72.79877787,60.52605060,65.29191681
72.71269297,60.39644082,65.19811321
72.67184820,60.35280875,65.17013293
72.68267581,60.36385077,65.17045455
72.72662950,60.39794168,65.23970840
72.81946827,60.50686106,65.30724700
72.93085334,60.65855489,65.42334906
73.04170240,60.78355489,65.51768868
73.09830617,60.88968696,65.57472127
73.19639794,61.00750429,65.59841338
73.25557461,61.10205832,65.71676672
73.35634648,61.20969125,65.74785592
73.41230703,61.29652659,65.82525729
73.46676672,61.37585763,65.88271870
73.56003431,61.48091767,65.93160377
73.61320755,61.58962264,66.00707547
73.69864923,61.70894082,66.09165952
73.79524014,61.83426244,66.16273585
73.90373070,61.97984563,66.27315609
73.98499142,62.10463122,66.31003431
74.09069468,62.22984563,66.39901372
74.19478988,62.37853774,66.49281732
74.28945111,62.54052316,66.57890223
74.34916381,62.64783448,66.64011578
74.44532590,62.76650943,66.74892796
74.54459691,62.88186106,66.80338765
74.62328473,63.01286449,66.89065180
74.67785163,63.16520154,66.95765437
74.73649228,63.26500858,67.05338765
74.81882504,63.41959691,67.09219554
74.66305746,63.23574185,66.98295455
74.05467410,62.49871355,66.41402230
73.53977273,61.77669383,65.95400943
73.27004717,61.34509005,65.68278302
73.19789880,61.19168096,65.66680961
73.20100772,61.16948971,65.65105060
73.19125214,61.12071184,65.67131218
73.17281304,61.08168954,65.60120069
73.19146655,61.08254717,65.65158662
73.20979846,61.08415523,65.65533877
73.19554031,61.06196398,65.63057461
73.09680532,60.93021012,65.54234563
72.98852916,60.79663379,65.42935249
72.98123928,60.72480703,65.45851201
72.99731990,60.74410377,65.44114494
73.09980703,60.84080189,65.52111921
73.17195540,60.92988851,65.62178388
73.29952830,61.08297599,65.73649228
73.37853774,61.19779160,65.79684820
73.46376501,61.28151801,65.82139794
73.48949400,61.32590051,65.88100343
73.60152230,61.46816038,65.98252573
73.60109348,61.52690823,65.97545026
73.68546312,61.60141509,66.07740137
73.76908233,61.69296741,66.12371355
73.83115352,61.75482419,66.20057890
73.86438679,61.82064751,66.20679674
73.96333619,61.97577187,66.28344768
74.07900943,62.09487564,66.38882933
74.17999571,62.21430103,66.47995283
74.22062607,62.34734134,66.50192967
74.29684820,62.43342624,66.56142796
74.40051458,62.55874786,66.65694683
74.47384220,62.65994854,66.73970840
74.55874786,62.79116638,66.81153516
74.66466552,62.90801887,66.89644082
74.72244854,63.01018439,66.95100772
74.80971269,63.11888937,67.03934391
74.87832333,63.23509863,67.13711407
74.74517581,63.16455832,67.00310892
74.17216981,62.47148370,66.44554031
73.52776587,61.57236278,65.88818611
73.17356346,61.06207118,65.61267153
73.04781304,60.83855060,65.47448542
73.02487136,60.80874786,65.48842196
73.04738422,60.76393654,65.50664666
73.02444254,60.67367067,65.49292453
73.00364494,60.63550600,65.49656947
73.02540738,60.62360635,65.53076758
73.03591338,60.62532161,65.50010720
72.96087050,60.53269726,65.39440395
72.88636364,60.37242710,65.36599485
72.85527444,60.32525729,65.36642367
72.86996141,60.34337479,65.34444683
72.97180532,60.45015009,65.45701115
73.06871784,60.58093911,65.57450686
73.18921527,60.73274014,65.61417238
73.31325043,60.83769297,65.72748714
73.39129503,60.97748714,65.76779588
73.45819039,61.06475129,65.80167238
73.53237564,61.18010292,65.81710978
73.57397084,61.28773585,65.89729846
73.65898370,61.35409520,66.01447256
73.74839194,61.47759434,66.10130789
73.82354202,61.59819897,66.17903087
73.92120497,61.71408662,66.21194254
74.03151801,61.81925386,66.31260720
74.09562607,61.93846484,66.42560034
74.21794597,62.06250000,66.46065609
74.32761578,62.19982847,66.54030875
74.43900086,62.35087907,66.61653087
74.54009434,62.46826758,66.74120926
74.64890652,62.58758576,66.83608491
74.76822470,62.76372213,66.84691252
74.83940823,62.87500000,66.96440823
74.95015009,63.02819468,67.02647942
74.99839194,63.13861492,67.13196827
75.09541166,63.25257290,67.17345626
75.18128216,63.38153945,67.30478130
75.25836192,63.49978559,67.31946827
75.27251286,63.55210120,67.36427959
74.80274443,63.02422813,66.93825043
74.13143225,62.17367067,66.36192110
73.70540309,61.59991424,65.98906518
73.60409520,61.35045026,65.94028731
73.63282590,61.36245712,65.95057890
73.70411664,61.41423671,65.98627787
73.72148370,61.42238422,66.02401372
73.74356775,61.42388508,66.05831904
73.79834906,61.49946398,66.09251715
73.81507290,61.51425815,66.12960978
73.76307890,61.44682676,66.07697256
73.64933533,61.31035592,65.89783448
73.64451115,61.24013722,65.93610635
73.67527873,61.27240566,65.98059605
73.77401372,61.34562607,66.04738422
73.86663808,61.46226415,66.10420240
73.99195969,61.61202830,66.18557033
74.08243997,61.77304889,66.27133362
74.16981132,61.88421955,66.37628645
74.22577187,62.01415094,66.40844768
74.30456690,62.08629931,66.48938679
74.38228988,62.19725557,66.55295883
74.46119211,62.29738422,66.61878216
74.53687822,62.38850772,66.70090051
74.64590480,62.48359777,66.76490137
74.70315180,62.58243997,66.79620497
74.81689537,62.71976844,66.87521441
74.91777444,62.85731132,67.00268010
75.00032161,62.98681389,67.10302316
75.06035592,63.08587050,67.10195111
75.18546312,63.22705832,67.23627787
75.26436535,63.34519726,67.31646655
75.39751286,63.48885077,67.38786449
75.48670669,63.60506003,67.45283019
75.58855060,63.75664666,67.49914237
75.68578473,63.91927530,67.61867496
75.77315609,64.02079760,67.69318182
75.87135506,64.16209262,67.74313894
75.83940823,64.17581475,67.79266724
75.31818182,63.57118353,67.28151801
74.67216981,62.72577187,66.75428816
74.25964837,62.13014580,66.40866209
74.11492281,61.89729846,66.32354202
74.14762007,61.90619640,66.31571612
74.20283019,61.89772727,66.39558319
74.18750000,61.89933533,66.33972985
74.20283019,61.89451115,66.36234991
74.28837907,61.92924528,66.42367067
74.26350772,61.95390223,66.40180103
74.19671955,61.84037307,66.38196827
74.07472127,61.66327187,66.22051887
74.04952830,61.63164666,66.20668954
74.09509005,61.64311750,66.23209691
74.16873928,61.71933962,66.30553173
74.29502573,61.90844768,66.44446827
74.41391509,62.03419811,66.54749142
74.49388937,62.17120497,66.61245712
74.58790738,62.28387650,66.72770154
74.65662521,62.37210549,66.74667667
74.72041166,62.44446827,66.76843911
74.77036878,62.51114923,66.78151801
74.79373928,62.56325043,66.82482847
74.85506003,62.65544597,66.88314751
74.93910806,62.75836192,66.95626072
75.02412093,62.86545883,67.00954117
75.15351630,63.03644940,67.14172384
75.20411664,63.11835334,67.16509434
75.18396226,63.09476844,67.14815609
74.67109777,62.49078045,66.66337907
73.99410377,61.60559605,66.13668525
73.63475557,61.06207118,65.78076758
73.52315609,60.92624357,65.78194683
73.55274443,60.88786449,65.79395369
73.55456690,60.85409520,65.76061321
73.49903516,60.80906947,65.72780875
73.51693825,60.79481132,65.72748714
73.56968268,60.85613208,65.78108919
73.56239280,60.87542882,65.74335334
73.51125643,60.76961835,65.67313465
73.45175815,60.67560034,65.65501715
73.43803602,60.66402230,65.63893654
73.47695111,60.67999571,65.70701115
73.55971269,60.77454974,65.78955832
73.69629074,60.96558748,65.92034734
73.76886792,61.08897942,65.97791595
73.87467839,61.24024443,66.00761149
73.97502144,61.38775729,66.12853774
74.04867067,61.46676672,66.15673242
74.12575043,61.54191681,66.24003002
74.19232419,61.62092624,66.26951115
74.22673671,61.71430103,66.27219125
74.29427530,61.83544168,66.35366638
74.38025300,61.94200257,66.45508148
74.46322899,62.06871784,66.50675386
74.55574614,62.19039451,66.57997427
74.63936535,62.31260720,66.67002573
74.73531304,62.43192539,66.76854631
74.80167238,62.53859348,66.83747856
74.91016295,62.68396226,66.92131218
74.96269297,62.78409091,66.96397942
75.08694254,62.90555317,67.08608491
75.14204545,63.01447256,67.06442967
75.20636792,63.14376072,67.18985849
75.29909949,63.26865352,67.24892796
75.33672813,63.36267153,67.30456690
75.45551029,63.48295455,67.40641081
75.52165523,63.58018868,67.45926244
75.59455403,63.70926244,67.45969125
75.70883362,63.81925386,67.57418525
75.26425815,63.36438679,67.24967839
74.47502144,62.33565609,66.46580189
73.78076758,61.45315180,65.96644511
73.53955832,61.03269726,65.74496141
73.51104202,60.96944683,65.72287736
73.49217410,60.91262864,65.72973842
73.46312178,60.85763293,65.70840480
73.41370069,60.75932676,65.69050172
73.46183533,60.75343053,65.69210978
73.41477273,60.76876072,65.68857204
73.34787736,60.67999571,65.66262864
73.19457547,60.49410377,65.51704545
73.12467839,60.38689966,65.41370069
73.13882933,60.35902659,65.45743997
73.19007290,60.42699400,65.51533019
73.33404803,60.55381647,65.59326758
73.38775729,60.63775729,65.66927530
73.52937393,60.82268439,65.75364494
73.61470840,60.94939966,65.84112350
73.67549314,61.02433533,65.83994425
73.72984563,61.13786449,65.92409949
73.76297170,61.21194254,65.97416381
73.85698971,61.30939108,66.01993997
73.89987136,61.37457118,66.06839623
74.00975557,61.50804031,66.16520154
74.04824185,61.61642367,66.22319897
74.09809177,61.69243139,66.24410377
74.17270583,61.81400086,66.32665094
74.32311321,61.97384220,66.45561750
74.40523156,62.05167238,66.50214408
74.46612350,62.20068611,66.54888508
74.58147513,62.32997427,66.68782161
74.72523585,62.47716552,66.76725986
74.76897513,62.57643654,66.83501286
74.85280875,62.68042453,66.90683962
74.93546312,62.82139794,66.97019726
75.01511578,62.94264580,67.02476415
75.08758576,63.02776587,67.09573328
75.17206261,63.15126501,67.18964408
75.26318611,63.30435249,67.25568182
75.30681818,63.36470840,67.29288165
75.04170240,63.09144511,67.00503859
74.25536021,62.16530875,66.38572041
73.50343053,61.16530875,65.72577187
73.17592196,60.62382075,65.54513293
73.08597770,60.46548027,65.42024014
73.08662093,60.42645798,65.47448542
73.07675815,60.36878216,65.47191252
73.00160806,60.27497856,65.32107633
72.96665952,60.23745712,65.32322041
73.03033877,60.27647942,65.30027873
72.97984563,60.23134648,65.30338765
72.86578045,60.07975986,65.16209262
72.74796312,59.90619640,65.13711407
72.74217410,59.88046741,65.12382075
72.77229846,59.90673242,65.16016295
72.86031304,60.00139365,65.22116209
72.96569468,60.19811321,65.29845626
73.10591767,60.32375643,65.42945969
73.22630789,60.48466981,65.58844340
73.30767581,60.61835334,65.57697256
73.36985420,60.69018010,65.63657804
73.44296741,60.77980274,65.71655232
73.49088765,60.85752573,65.74067324
73.51983276,60.95293739,65.77883791
73.62060463,61.02926672,65.83394082
73.70851201,61.14504717,65.91670240
73.80156518,61.28162521,66.01104202
73.88400515,61.41230703,66.09198113
73.93138937,61.49871355,66.14644082
74.04481132,61.64322470,66.22448542
74.17581475,61.80231561,66.32890223
74.25225129,61.92549314,66.38775729
74.36031304,62.07943825,66.46880360
74.44361063,62.18953688,66.56839623
74.53376930,62.28527015,66.60881218
74.60012864,62.42302744,66.71097770
74.64161664,62.47523585,66.71280017
74.73917238,62.61824614,66.77004717
74.83458405,62.75268010,66.87424957
74.84959262,62.76189966,66.86996141
74.25868353,62.13797170,66.32772298
73.45969125,61.10055746,65.65994854
72.94135935,60.38346913,65.27647942
72.76415094,60.08983705,65.12735849
72.78162521,60.07900943,65.13132504
72.75793310,60.04845626,65.13057461
72.73927959,59.99399657,65.10870497
72.67602916,59.90887650,65.09326758
72.75621784,59.96740995,65.11492281
72.76779588,59.96119211,65.15222985
72.64129503,59.83812178,65.02637221
72.51382933,59.65984134,64.92377787
72.46054889,59.59669811,64.86213551
72.48885077,59.62692967,64.88400515
72.57525729,59.69854202,64.98284734
72.68717839,59.85034305,65.07096913
72.82836621,60.00032161,65.21794597
72.90276587,60.11588765,65.24882075
73.00578902,60.27015437,65.30810463
73.06764580,60.33930103,65.40426672
73.16359348,60.45368782,65.47705832
73.20475986,60.54738422,65.52251286
73.25889794,60.62510720,65.56335763
73.29706261,60.67184820,65.62467839
73.40512436,60.81378645,65.64719125
73.45047170,60.89365352,65.69403945
73.56978988,61.03033877,65.80328045
73.65115780,61.14772727,65.89236707
73.67613636,61.20636792,65.90405232
73.22512864,60.68503431,65.47641509
72.52883791,59.75653945,64.91370069
72.03119640,59.09165952,64.51811750
71.90544597,58.87821612,64.45475986
71.90137221,58.84584048,64.44725557
71.92088336,58.84884220,64.45111492
71.92131218,58.81689537,64.48885077
71.92720840,58.81978988,64.46665952
72.04641938,58.95936964,64.53891509
72.04770583,58.97180532,64.52755146
72.00632504,58.90105060,64.50932676
71.92677959,58.76039880,64.42828045
71.87853774,58.75289451,64.38818611
71.98274014,58.82557890,64.45786878
72.13464837,58.97684391,64.58855060
72.26554460,59.15576758,64.73295455
72.40598199,59.32257719,64.85709691
72.52101201,59.47534305,64.94832762
72.63325472,59.66777444,64.98038165
72.71698113,59.78280446,65.11835334
72.78805746,59.90190823,65.15941252
72.90844768,60.05210120,65.24549743
72.98659949,60.14997856,65.30842624
73.06357204,60.26382933,65.31593053
73.16144940,60.39965695,65.43331904
73.25053602,60.52776587,65.50546741
73.37307033,60.67860206,65.62135506
73.47266295,60.84294597,65.73917238
73.61063465,60.98542024,65.84219554
73.70100772,61.12682247,65.85924099
73.82429245,61.28462693,65.97201973
73.93374786,61.47641509,66.05317324
74.05102916,61.62156947,66.16659520
74.15898370,61.75268010,66.24346055
74.25664666,61.90523156,66.33512007
74.34701973,62.05135077,66.40641081
74.45390223,62.18117496,66.48584906
74.55842624,62.33544168,66.65190823
74.64804889,62.46451544,66.67292024
74.79159520,62.60891938,66.81089194
74.71505146,62.62178388,66.69296741
74.14418954,61.93278302,66.22137650
73.47255575,61.05810463,65.65072899
73.13561321,60.50932676,65.30392367
73.05478130,60.36481561,65.28269726
73.08265437,60.38754288,65.31207118
73.15448113,60.39033019,65.41477273
73.13379074,60.36856775,65.36706690
73.10977702,60.35463122,65.36878216
73.19018010,60.39172384,65.40308748
73.18589194,60.41466552,65.35441681
73.11374357,60.34959262,65.29213122
73.06614494,60.24560463,65.27133362
73.05542453,60.22866638,65.26275729
73.08608491,60.29384648,65.30885506
73.23520583,60.44468268,65.42238422
73.39547599,60.59380360,65.58008148
73.51114923,60.74957118,65.65265866
73.61052744,60.90233705,65.75139365
73.69822041,61.03076758,65.81271441
73.78891509,61.15448113,65.86245712
73.86159949,61.26747427,65.93514151
73.90662521,61.37424957,65.95465266
74.01833190,61.48745712,66.05585334
74.08994425,61.59766295,66.16756003
74.23670669,61.76136364,66.28902230
74.29792024,61.86138508,66.32300600
74.37821612,62.02530017,66.43289022
74.46783877,62.16016295,66.51114923
74.57772298,62.28141081,66.58072470
74.69125214,62.42795883,66.66831046
74.76393654,62.59562607,66.73734991
74.89311750,62.75246569,66.86524443
74.97555746,62.85570326,66.92602916
75.06507290,62.97802316,66.98231132
75.18846484,63.13979417,67.10420240
75.27304889,63.25911235,67.16991852
75.36106346,63.36299314,67.20433105
75.45400943,63.50632504,67.28741424
75.52830189,63.62135506,67.29995712
75.60709691,63.74003002,67.40962693
75.50053602,63.64440395,67.29213122
74.87532161,62.89333190,66.76704545
74.31260720,62.09476844,66.22255575
73.99388937,61.66048456,66.01125643
73.94629074,61.56014151,65.98788593
73.97234134,61.54202401,66.01522298
73.93696398,61.50064322,65.98777873
73.84165952,61.34809177,65.87103345
73.81678816,61.29599057,65.84187393
73.84155232,61.30188679,65.92024014
73.83780017,61.32600772,65.93149657
73.82043310,61.27133362,65.87189108
73.72234134,61.16252144,65.79416810
73.71301458,61.14461835,65.83415523
73.73477702,61.18267581,65.83597770
73.82118353,61.25686106,65.89108062
73.97984563,61.43374786,66.03687822
74.05831904,61.54909949,66.15437393
74.15330189,61.71076329,66.17838765
74.19307461,61.79727702,66.15941252
74.30488851,61.88486278,66.27487136
74.31764580,62.00761149,66.37960978
74.37221269,62.08490566,66.39944254
74.42924528,62.13550600,66.42109777
74.47201973,62.21837479,66.47866638
74.58458405,62.33672813,66.56764580
74.68128216,62.45936964,66.66241424
74.77283448,62.59551887,66.71987564
74.70754717,62.54073756,66.66402230
74.28623499,62.06174957,66.29180961
73.73595626,61.31593053,65.79406089
73.40694683,60.84884220,65.53108919
73.34862779,60.71826758,65.46590909
73.32675815,60.68546312,65.49871355
73.35034305,60.67860206,65.49785592
73.30370926,60.61545883,65.47437822
73.31850343,60.63046741,65.51447256
73.41198542,60.75139365,65.57429245
73.39504717,60.71816038,65.55113636
73.33147513,60.63250429,65.45218696
73.23638508,60.52862350,65.39654803
73.24228130,60.51500858,65.40887650
73.29845626,60.56968268,65.47384220
73.40973413,60.69253859,65.58726415
73.52948113,60.87768010,65.66777444
73.58051029,60.95915523,65.74174528
73.69918525,61.12971698,65.79802744
73.78023156,61.22684391,65.90351630
73.82300600,61.32300600,65.90533877
73.91219983,61.43128216,65.98938679
73.97673671,61.51876072,66.05435249
74.04738422,61.62843053,66.13014580
74.09937822,61.74839194,66.16798885
74.17806604,61.83029588,66.20851201
74.28677101,61.95551029,66.33243997
74.33383362,62.04888508,66.37542882
74.44286021,62.18621355,66.43900086
74.51157804,62.28087479,66.51822470
74.64451115,62.46076329,66.58404803
74.67377787,62.51704545,66.61524443
74.38539880,62.23231132,66.38775729
73.70186535,61.36438679,65.79813465
73.15040738,60.60216552,65.34123070
72.97116209,60.31743139,65.20272298
72.92420669,60.20958405,65.15233705
72.91756003,60.16155660,65.15147942
72.88282590,60.05971269,65.11224271
72.85409520,60.02990995,65.09959262
72.88572041,60.07246998,65.12049743
72.91573756,60.09948542,65.18353345
72.89569039,60.05885506,65.12146226
72.75846913,59.90298027,65.03248285
72.70036449,59.82986707,64.90426672
72.76479417,59.88507719,65.00750429
72.82825901,59.93846484,65.09048027
72.98359777,60.12296312,65.18878645
73.05778302,60.26168525,65.28162521
73.20958405,60.42656518,65.41241424
73.29652659,60.57632933,65.46569468
73.36224271,60.65619640,65.50675386
73.43578473,60.75460978,65.56700257
73.52390652,60.87939537,65.64933533
73.60741852,60.98370497,65.73799314
73.65137221,61.06110635,65.77808748
73.72373499,61.15598199,65.81528731
73.81657376,61.30628216,65.94243139
73.91530875,61.45883362,65.99013722
74.03012436,61.57193396,66.13153945
74.09637650,61.66777444,66.15855489
74.18910806,61.80510292,66.23456261
74.28848628,61.94736278,66.35602487
74.38754288,62.06250000,66.39890652
74.48381218,62.17677959,66.45250858
74.57439966,62.30360206,66.54095197
74.65844768,62.43567753,66.62692967
74.74978559,62.55274443,66.70561750
74.82825901,62.67581475,66.77572899
74.91241424,62.77497856,66.85109348
74.98692110,62.90523156,66.90566038
75.07718696,63.03130360,67.01243568
75.14547599,63.13711407,67.04127358
75.14954974,63.18021012,67.03183962
74.68117496,62.62328473,66.62156947
73.89033019,61.61438679,65.98081046
73.39172384,60.88700686,65.51629503
73.24506861,60.62028302,65.41487993
73.21976844,60.54738422,65.39429674
73.20508148,60.49667667,65.40062178
73.12253431,60.36567324,65.32729417
73.03934391,60.24024443,65.24024443
73.08565609,60.28891509,65.32000429
73.12274871,60.32236278,65.32472127
73.09884220,60.26265009,65.29288165
72.98070326,60.09734134,65.18674957
72.94071612,60.03505575,65.17013293
72.99935678,60.07675815,65.21076329
73.11234991,60.21955403,65.26543739
73.24421098,60.37993139,65.38464837
73.35366638,60.52262007,65.48166810
73.46580189,60.67592196,65.57600772
73.57054031,60.79845626,65.68889365
73.64290309,60.88346913,65.73702830
73.74731990,60.99882075,65.80735420
73.82011149,61.11234991,65.88636364
73.88732847,61.21001286,65.94693396
73.92978130,61.31850343,65.99367496
74.05274443,61.43396226,66.08083190
74.14215266,61.59841338,66.19982847
74.27669383,61.71258576,66.22566467
74.35066467,61.86824614,66.35066467
74.49035163,62.00493139,66.41359348
74.60066467,62.20508148,66.57686535
74.69403945,62.29759863,66.61556604
74.81142796,62.45808319,66.67956690
74.91788165,62.58426244,66.81217839
74.97823756,62.69671955,66.88132504
75.13143225,62.88271870,66.95454545
75.19746998,62.99442539,67.00707547
75.26929674,63.09905660,67.07804460
75.37500000,63.24635506,67.17452830
75.47094768,63.37639365,67.28912950
75.56239280,63.48906518,67.30831904
75.64225986,63.63582762,67.39418954
75.71483705,63.72255575,67.46676672
75.55778302,63.57364923,67.28569897
74.79727702,62.73402659,66.70786878
74.25246569,61.89225986,66.23488422
74.01018439,61.48274014,66.01983276
73.97341338,61.36492281,65.93739280
73.95379503,61.37382075,65.94286021
73.95647513,61.32933105,65.90115780
73.86503002,61.20400943,65.87274871
73.87500000,61.17731561,65.85184391
73.92667238,61.21612350,65.92517153
73.93042453,61.21923242,65.95465266
73.87039022,61.16927530,65.89654803
73.80735420,61.04534734,65.78398370
73.79984991,61.03912950,65.76597341
73.82868782,61.07268439,65.82246998
73.97491424,61.22727273,65.94489708
74.08629931,61.37039022,66.08436964
74.18074614,61.51993997,66.12307033
74.28141081,61.63990137,66.19800600
74.35666810,61.77755146,66.30606775
74.46419383,61.85977702,66.36835334
74.51093482,61.96976844,66.45132933
74.57568611,62.07139794,66.46955403
74.63807890,62.15759005,66.49635506
74.73145369,62.28076758,66.60966981
74.79867067,62.37221269,66.67967410
74.90737564,62.50085763,66.75493139
75.01329331,62.62307033,66.83597770
75.13111063,62.76661664,66.94521870
75.21312178,62.90180103,67.01114923
75.30285163,63.01640223,67.08780017
75.35023585,63.15019297,67.13432676
75.43567753,63.28044597,67.19318182
75.56335763,63.41348628,67.31507290
75.63196827,63.52819468,67.35688250
75.72416381,63.64826329,67.44629074
75.81046312,63.74335334,67.49978559
75.87114065,63.87928816,67.56046312
75.96194254,63.99967839,67.62039022
76.02540738,64.11202830,67.71065609
76.12167667,64.20358062,67.70851201
76.19714837,64.31700257,67.80135077
75.99410377,64.11867496,67.59723413
75.32804460,63.25986278,67.03023156
74.63368353,62.37532161,66.51125643
74.33083190,61.86985420,66.22277015
74.26929674,61.75514580,66.15180103
74.24281732,61.71665952,66.15340909
74.23649228,61.68331904,66.16144940
74.19125214,61.56925386,66.11192110
74.18374786,61.57204117,66.10055746
74.22813036,61.59626930,66.14322470
74.19103774,61.54588336,66.12714408
74.07375643,61.38443396,65.99442539
73.96944683,61.20057890,65.90555317
73.94489708,61.17602916,65.92367067
73.97234134,61.19468268,65.94575472
74.09701973,61.32836621,66.03527015
74.16477273,61.45894082,66.06893225
74.30188679,61.62885935,66.21397942
74.38421955,61.71805317,66.28945111
74.45979846,61.82407804,66.32300600
74.49463979,61.92624357,66.39193825
74.50846913,62.02240566,66.39204545
74.56668096,62.05831904,66.41080617
74.64547599,62.13496998,66.47952401
74.69189537,62.20197256,66.52701544
74.77004717,62.31314322,66.61653087
74.87864494,62.41209262,66.68867925
74.96076329,62.53580617,66.77337050
75.01575901,62.65083619,66.79856346
75.09487564,62.77026158,66.89740566
75.16166381,62.86449400,66.97427101
75.26425815,62.98852916,67.01018439
75.34830617,63.11738851,67.08093911
75.42195540,63.21612350,67.14408233
75.49367496,63.30778302,67.23702830
75.58565609,63.43685678,67.33758576
75.62660806,63.54620497,67.29320326
75.72502144,63.67956690,67.39033019
75.77379931,63.74506861,67.42409949
75.87339194,63.84937822,67.50525300
75.55971269,63.53248285,67.20936964
74.73895798,62.51661664,66.55692539
74.06721698,61.56721698,65.99088765
73.74614065,61.07718696,65.73220412
73.63604202,60.91069897,65.64204545
73.62360635,60.88261149,65.65040738
73.61481561,60.82214837,65.64268868
73.49678388,60.66016295,65.55060034
73.50589623,60.63239708,65.56035592
73.53451973,60.67281304,65.58447684
73.51972556,60.64686964,65.57568611
73.41627358,60.52154803,65.45958405
73.32900943,60.36610206,65.32450686
73.31914666,60.34337479,65.32622213
73.35506003,60.41530875,65.37392796
73.48102487,60.52990995,65.54856346
73.61706690,60.70454545,65.60548885
73.71505146,60.84948542,65.67474271
73.82858062,60.98231132,65.80070755
73.89847770,61.07064751,65.87703688
73.93621355,61.16884648,65.86395798
74.01575901,61.27712264,65.96044168
74.04384648,61.33136792,65.94993568
74.10945540,61.43063894,66.01940395
74.20315180,61.52026158,66.10774014
74.28066038,61.63807890,66.14622642
74.36642367,61.75514580,66.21526587
74.45090051,61.88057461,66.30038593
74.52915952,62.00407376,66.34691252
74.62006861,62.18181818,66.51758148
74.71612350,62.27594340,66.59176672
74.84026587,62.43310463,66.75085763
74.90255146,62.55778302,66.78098199
75.00471698,62.68439108,66.85291595
75.08951544,62.80435249,66.90662521
75.17099057,62.90748285,66.95786878
75.28098199,63.04298885,67.05713979
75.36867496,63.17720840,67.16370069
75.46194254,63.29877787,67.15598199
75.53419811,63.42527873,67.24281732
75.62553602,63.51983276,67.31871784
75.68900086,63.66713122,67.38346913
75.53033877,63.49153087,67.23617067
74.71569468,62.54202401,66.59905660
73.93117496,61.44125214,65.85999142
73.51211407,60.78827187,65.50632504
73.42956690,60.56978988,65.42656518
73.37178388,60.52186964,65.43524871
73.37253431,60.51404374,65.40598199
73.30746141,60.41166381,65.37564322
73.27658662,60.33962264,65.32997427
73.27444254,60.35248714,65.38357633
73.30156518,60.36824614,65.38153945
73.17828045,60.22566467,65.32150515
73.10484563,60.07075472,65.17945969
73.02722985,60.01093482,65.15694683
73.06743139,60.03312607,65.19093053
73.16230703,60.15887650,65.27186964
73.30767581,60.32825901,65.39794168
73.41841767,60.53419811,65.54749142
73.53612779,60.64633362,65.53076758
73.59680532,60.76790309,65.64526158
73.68278302,60.88647084,65.68642796
73.77401372,60.97019726,65.72427101
73.79030875,61.04652659,65.79738422
73.92624357,61.14579760,65.89343911
73.96376501,61.22212693,65.90566038
74.04599057,61.37575043,66.05778302
74.12360635,61.47352058,66.08972985
74.22384220,61.60849057,66.14386792
74.32429245,61.71387221,66.21558748
74.42099057,61.82772298,66.32793739
74.50053602,61.97009005,66.40791166
74.57890223,62.12071184,66.44082333
74.66048456,62.28098199,66.50868353
74.73241852,62.37542882,66.58340480
74.83694254,62.51297170,66.66434391
74.94650515,62.65019297,66.75160806
75.01929674,62.73863636,66.80703259
75.10945540,62.84744854,66.91091338
75.19382504,62.94789880,66.91831046
75.29502573,63.06389365,67.00986278
75.38754288,63.21944683,67.11417238
75.44993568,63.35066467,67.16112779
75.18685678,63.07214837,66.90855489
74.34809177,62.00782590,66.23702830
73.51286449,60.87371355,65.58426244
73.08061750,60.26779588,65.19596913
72.97009005,60.08501286,65.10495283
72.98713551,60.06132075,65.13936535
72.97502144,60.03955832,65.12124786
72.91595197,59.98006003,65.06067753
72.87768010,59.88647084,65.01275729
72.95808319,59.93900086,65.10259434
72.94629074,59.91841767,65.06442967
72.85216552,59.74346055,65.01297170
72.73960120,59.60430961,64.86460120
72.67860206,59.53301887,64.85698971
72.74796312,59.58265437,64.92978130
72.82643654,59.70315180,64.99260292
72.94757719,59.92077616,65.06786021
73.05499571,60.09616209,65.19886364
73.21044168,60.25804031,65.30563894
73.28827187,60.38003859,65.37703688
73.33769297,60.48692110,65.41209262
73.42195540,60.56560892,65.41680961
73.47437822,60.64740566,65.50675386
73.53355489,60.72545026,65.54856346
73.62081904,60.81099914,65.61224271
73.71923242,60.93685678,65.75782590
73.78301887,61.05188679,65.76329331
73.90919811,61.20229417,65.85216552
73.98274014,61.34959262,65.92978130
74.10323756,61.49560463,66.06314322
74.19361063,61.63915094,66.13464837
74.28183962,61.73938679,66.19328902
74.36803173,61.90383791,66.30006432
74.48445540,62.01447256,66.38175386
74.60666810,62.16412950,66.45572470
74.67731561,62.27208405,66.56410806
74.74496141,62.36781732,66.56571612
74.84809177,62.51125643,66.64483276
74.88925815,62.60430961,66.70079331
75.01747427,62.75160806,66.80156518
75.08426244,62.83897942,66.88979417
75.04566895,62.86170669,66.83919383
74.40855489,62.12210549,66.29491852
73.57622213,60.97437822,65.54491852
72.99238851,60.20315180,65.13068182
72.80413808,59.84916381,64.96172813
72.81057033,59.82343482,64.95915523
72.81978988,59.82429245,65.00032161
72.83319039,59.78409091,64.96162093
72.79138079,59.73885077,64.95518868
72.80885506,59.77712264,64.99710549
72.84541166,59.79138079,65.00750429
72.72834477,59.64751286,64.85205832
72.65147942,59.52111921,64.78462693
72.59080189,59.44071612,64.77583619
72.60463122,59.42538593,64.78945111
72.68814322,59.53376930,64.81914666
72.82332762,59.71505146,64.93460549
72.93996569,59.87585763,65.01608062
73.06989708,60.03795026,65.12478559
73.17259863,60.23370497,65.23520583
73.27337050,60.33040309,65.35527444
73.37371355,60.46226415,65.43503431
73.45808319,60.54256003,65.49967839
73.47759434,60.64633362,65.49088765
73.55746141,60.74271012,65.53666381
73.63807890,60.83361921,65.62500000
73.73670669,60.95861921,65.72448542
73.87253431,61.14418954,65.83737136
73.92377787,61.23638508,65.89633362
74.07900943,61.40576758,65.98038165
74.19178816,61.56228559,66.12060463
74.24731990,61.69157376,66.16498714
74.35838336,61.83072470,66.27862350
74.48874357,62.00246569,66.35152230
74.59144511,62.12682247,66.43192539
74.67774443,62.24785592,66.50257290
74.75525300,62.35838336,66.59466123
74.87703688,62.53484134,66.69093053
74.93825043,62.62607204,66.72277015
75.05263722,62.79234563,66.81485849
75.11717410,62.91520154,66.90726844
75.14729846,62.97469983,66.92066895
74.64922813,62.43010292,66.49163808
73.93514151,61.45165094,65.84144511
73.34144511,60.65619640,65.35430961
73.14697684,60.29256003,65.08479846
73.11470840,60.21869640,65.16123499
73.08919383,60.19982847,65.17667238
73.06903945,60.11899657,65.14279588
73.00589623,60.03891509,65.09573328
73.00139365,60.03784305,65.11888937
73.02412093,60.08865780,65.10859777
73.02583619,60.06228559,65.10859777
72.93910806,59.92645798,64.99120926
72.87510720,59.84144511,64.96730274
72.87682247,59.81271441,64.98316895
72.91209262,59.88529160,64.96590909
73.04063036,59.99882075,65.09959262
73.17935249,60.17849485,65.26940395
73.29127358,60.37296312,65.34037307
73.39772727,60.50514580,65.39815609
73.42860206,60.60827616,65.42409949
73.50857633,60.72898799,65.53323328
73.62650086,60.85891938,65.60463122
73.69521870,60.93042453,65.67077616
73.76972556,61.05188679,65.73842196
73.83983705,61.16895369,65.77122642
73.91648799,61.28677101,65.86224271
74.00911235,61.37918096,65.91713122
74.11052744,61.54320326,66.04470412
74.18707118,61.67313465,66.11545883
74.27283448,61.75075043,66.17870926
74.37607204,61.91445111,66.27744425
74.46355060,62.07761578,66.32139794
74.58018868,62.23777873,66.44661235
74.68224700,62.36835334,66.53023156
74.73724271,62.47352058,66.59466123
74.86149228,62.62864494,66.64236707
74.96548027,62.73842196,66.75214408
75.04716981,62.84369640,66.80060034
75.12853774,62.95936964,66.87918096
75.20551029,63.07772298,66.92334906
75.31014151,63.23102487,67.08715695
75.33629931,63.30156518,67.03548456
75.00032161,62.93685678,66.75353774
74.22469983,61.98799314,66.12478559
73.56786021,61.02390652,65.53977273
73.24463979,60.57632933,65.26072041
73.16959691,60.41745283,65.25278731
73.18674957,60.40137221,65.23949400
73.14772727,60.35891938,65.23734991
73.11846055,60.31099914,65.20443825
73.11545883,60.31228559,65.21108491
73.16916810,60.33254717,65.23970840
73.15062178,60.29556175,65.23659949
73.01736707,60.12800172,65.09305317
72.91970412,59.94972127,64.98166810
72.91648799,59.93835763,65.00868353
72.96237136,59.98424099,65.07343482
73.08554889,60.11449400,65.19253859
73.22973842,60.31292882,65.27047599
73.34487564,60.51382933,65.37360635
73.46869640,60.65072899,65.45497427
73.57697256,60.80102916,65.60313036
73.62757290,60.91702401,65.60677530
73.70325901,60.98241852,65.66230703
73.75728988,61.04845626,65.71590909
73.85291595,61.21569468,65.81861063
73.92581475,61.32611492,65.85291595
74.02165523,61.39579760,65.96419383
74.13293310,61.52572899,66.01307890
74.19854202,61.69661235,66.11749571
74.29877787,61.81057033,66.20979846
74.40094340,61.93160377,66.33790738
74.52240566,62.07257719,66.40448113
74.63657804,62.24463979,66.46569468
74.71569468,62.32611492,66.54716981
74.79180961,62.46998285,66.66209262
74.91102058,62.63057461,66.71933962
74.96730274,62.73659949,66.78848628
75.09283877,62.91573756,66.85463122
75.20025729,63.02701544,66.90180103
75.30746141,63.14837050,66.99056604
75.38561321,63.29792024,67.08115352
75.46129931,63.42613636,67.15662521
75.54427530,63.52840909,67.18192539
75.60816895,63.63840051,67.23767153
75.28323328,63.25879074,66.96119211
74.47319897,62.19253859,66.27658662
73.76286449,61.24120926,65.65394511
73.41016295,60.68632075,65.39686964
73.37317753,60.60152230,65.41563036
73.36942539,60.57225557,65.38228988
73.38957976,60.58812178,65.41938250
73.37135506,60.56882504,65.40373070
73.39879931,60.58597770,65.43589194
73.44618353,60.63486278,65.44897084
73.39386792,60.54674099,65.35763293
73.24131647,60.34444683,65.20894082
73.09766295,60.14418954,65.13882933
73.11963979,60.12971698,65.16702401
73.17581475,60.17924528,65.21333619
73.27251286,60.29116638,65.29073756
73.37403516,60.45272298,65.38668525
73.50675386,60.66498714,65.51061321
73.60581046,60.80542453,65.59744854
73.70207976,60.95143654,65.71430103
73.80778302,61.05885506,65.76082762
73.87832333,61.14376072,65.80842624
73.89075901,61.19757719,65.83372642
73.97019726,61.26500858,65.89536878
74.00728988,61.34391081,65.91209262
74.07096913,61.42560034,65.99228130
74.14847770,61.58136792,66.07343482
74.22566467,61.70186535,66.13539880
74.37821612,61.87392796,66.20475986
74.44253859,61.98777873,66.29909949
74.55253002,62.14129503,66.41445111
74.64493997,62.24656947,66.50536021
74.72813036,62.37542882,66.58040309
74.81442967,62.47330617,66.60302316
74.88529160,62.59155232,66.71655232
74.98338336,62.70529588,66.76961835
75.08093911,62.83008148,66.86717410
75.19082333,62.96612350,66.89322470
75.23820755,63.08962264,66.98777873
75.34283877,63.23992281,67.06024871
75.43642796,63.33394082,67.16756003
75.17452830,63.05553173,66.90501715
74.27562178,61.96129931,66.10109348
73.47480703,60.86824614,65.47352058
73.03194683,60.23627787,65.06539451
72.93524871,59.99206690,65.01650943
72.94586192,59.96623070,65.02412093
72.97598628,60.02337050,65.04159520
72.93664237,59.96258576,65.02776587
72.92517153,59.94746998,65.04416810
72.94575472,59.98563465,65.07525729
72.94554031,59.97062607,65.05381647
72.83865780,59.82064751,64.98852916
72.71869640,59.64644082,64.85377358
72.66134220,59.59273156,64.81357204
72.74217410,59.62489280,64.89290309
72.87360635,59.79920669,64.91884648
72.97705832,59.97384220,65.07740137
73.15855489,60.15962693,65.20851201
73.27176244,60.30864065,65.33115352
73.37746569,60.49388937,65.41027015
73.43278302,60.55671098,65.48595626
73.50911235,60.68449828,65.50932676
73.54802744,60.77615780,65.51200686
73.60420240,60.85077187,65.56646655
73.73166810,61.01082762,65.69800600
73.79009434,61.09605489,65.74206690
73.89665523,61.21333619,65.83447684
73.95765437,61.32665094,65.88818611
74.07943825,61.50139365,66.00418096
74.18213979,61.62660806,66.09165952
74.30070755,61.75310892,66.17420669
74.39719125,61.88904374,66.23274014
74.47394940,62.01897513,66.34401801
74.56110635,62.13443396,66.38379074
74.69393225,62.30563894,66.52454974
74.74506861,62.40887650,66.56110635
74.85184391,62.53773585,66.62371355
74.91241424,62.65169383,66.70379503
75.02208405,62.77208405,66.82461407
75.06014151,62.84852058,66.82171955
75.14172384,62.97319897,66.87607204
75.25804031,63.11310034,66.96623070
75.30939108,63.21226415,67.00964837
75.05724700,62.95926244,66.80553173
74.17377787,61.83136792,66.12832333
73.29577616,60.69929245,65.28955832
72.79963551,59.97502144,64.93042453
72.66723842,59.68760720,64.72041166
72.65951973,59.65716123,64.83790738
72.67624357,59.68053173,64.86985420
72.69028731,59.66906089,64.84659091
72.68267581,59.65415952,64.82825901
72.71204974,59.69403945,64.84862779
72.71430103,59.68213979,64.84637650
72.57804460,59.55017153,64.80810463
72.49142367,59.41680961,64.67195540
72.42742281,59.31828902,64.64011578
72.48402659,59.35623928,64.68685678
72.60323756,59.50868353,64.77240566
72.76361492,59.70636792,64.97995283
72.87650086,59.93567753,64.97298456
73.04641938,60.08822899,65.13818611
73.16680961,60.23842196,65.20004288
73.27090480,60.38604202,65.28912950
73.32675815,60.51457976,65.35741852
73.40019297,60.59358919,65.42956690
73.46537307,60.67120497,65.48231132
73.56239280,60.80038593,65.56710978
73.59058748,60.87768010,65.64376072
73.66273585,61.00278731,65.62178388
73.75439537,61.09787736,65.73166810
73.87853774,61.24388937,65.82986707
74.00364494,61.40801887,65.91766724
74.11320755,61.55102916,66.01586621
74.20583190,61.72169811,66.13271870
74.29674099,61.84133791,66.18310463
74.41166381,61.98349057,66.31453688
74.51650943,62.13228988,66.35355918
74.61910377,62.26683105,66.42806604
74.68406947,62.38389794,66.54620497
74.77669383,62.50525300,66.61224271
74.88732847,62.63325472,66.68021012
74.94436106,62.72716552,66.73402659
75.02186964,62.85591767,66.78902230
75.14440395,63.00032161,66.83994425
75.21880360,63.10559605,66.95979846
74.83672813,62.67527873,66.60752573
73.88003859,61.48102487,65.82236278
73.06067753,60.38271870,65.10956261
72.61106346,59.75428816,64.76350772
72.48863636,59.56410806,64.66166381
72.47384220,59.55767581,64.71226415
72.56174957,59.58876501,64.81410806
72.60688250,59.62660806,64.82064751
72.66552316,59.70561750,64.85012864
72.75332333,59.81635935,64.90298027
72.70325901,59.72041166,64.90222985
72.53291166,59.52412093,64.69478988
72.38368353,59.34466123,64.54663379
72.34541166,59.29331046,64.58211835
72.39483276,59.35152230,64.63625643
72.56957547,59.50568182,64.76918954
72.70711835,59.68481990,64.85956261
72.86277873,59.88271870,64.96376501
73.01329331,60.08018868,65.10634648
73.11481561,60.24024443,65.19607633
73.15190823,60.30070755,65.20593911
73.20111492,60.42088336,65.23198971
73.33243997,60.55220840,65.33415523
73.38046741,60.64204545,65.41370069
73.43696398,60.71569468,65.48542024
73.53183962,60.83501286,65.54577616
73.60184391,60.96290738,65.61342196
73.70894082,61.08608491,65.75632504
73.80831904,61.20240137,65.82289880
73.89011578,61.34894940,65.84551887
73.99667667,61.47673671,65.95379503
74.10280875,61.63046741,66.03162521
74.20433105,61.76200686,66.12671527
74.27101201,61.88464837,66.21740995
74.38196827,62.00096484,66.31014151
74.48048885,62.13765009,66.32740137
74.54288165,62.29438250,66.36342196
74.62607204,62.39215266,66.45904803
74.73949400,62.52101201,66.59412521
74.69286021,62.50117925,66.54427530
74.02948113,61.72566467,65.96751715
73.02379931,60.47834477,65.17066895
72.31496569,59.51243568,64.51608062
71.98885077,59.05253002,64.19789880
71.97362779,58.94811321,64.25428816
72.00021441,58.94639794,64.28237564
72.00814751,58.93246141,64.31689537
72.04020154,58.91820326,64.28055317
72.07493568,58.98081046,64.32472127
72.10881218,59.03827187,64.37810892
72.04459691,58.95518868,64.37864494
71.91659520,58.77765866,64.18932247
71.81507290,58.65405232,64.12446398
71.80338765,58.63636364,64.07911664
71.90898370,58.74474700,64.19586192
72.04706261,58.93535592,64.30799743
72.24056604,59.18289022,64.46955403
72.37628645,59.33276158,64.60806175
72.52840909,59.54298885,64.68235420
72.64815609,59.67817324,64.76608062
72.71462264,59.83426244,64.89172384
72.76297170,59.96601630,64.91927530
72.85452401,60.02626501,64.97180532
72.98027444,60.15909091,65.09841338
73.10752573,60.30628216,65.21773156
73.15383791,60.38797170,65.23081046
73.24292453,60.52572899,65.28730703
73.27926672,60.67763722,65.32407804
73.42602916,60.79331046,65.46698113
73.53612779,60.96001286,65.58479846
73.66445111,61.09884220,65.67302744
73.74871355,61.22255575,65.69682676
73.85623928,61.37489280,65.81228559
73.95979846,61.48445540,65.88797170
74.03462693,61.62575043,66.02154803
74.15630360,61.74571184,66.09648370
74.24539022,61.87424957,66.12617925
74.33168954,62.07718696,66.26307890
74.41938250,62.18053173,66.31174957
74.51715266,62.31839623,66.37156947
74.58983705,62.41938250,66.48970840
74.68256861,62.54020154,66.52347770
74.60581046,62.48231132,66.52069039
73.78891509,61.52840909,65.74860635
72.77412093,60.22030446,64.88132504
72.10452401,59.27926672,64.39397513
71.83029588,58.89826329,64.19350343
71.81378645,58.82322041,64.16520154
71.83329760,58.84423242,64.17013293
71.85162950,58.87971698,64.17152659
71.87242710,58.83254717,64.21119211
71.93117496,58.91166381,64.25107204
71.96408662,58.95315180,64.29341767
71.88925815,58.89247427,64.23338336
71.76436535,58.68546312,64.08126072
71.66348628,58.56121355,63.96944683
71.65126501,58.59080189,64.00546741
71.76833190,58.69028731,64.11224271
71.88454117,58.90941252,64.17034734
72.10666810,59.13711407,64.38882933
72.27808748,59.35527444,64.52186964
72.43042453,59.52905232,64.61138508
72.52690823,59.68042453,64.68492710
72.62800172,59.82975986,64.81646655
72.71462264,59.92109777,64.86299314
72.79052316,60.02894511,64.88915094
72.87918096,60.16455832,65.00653945
72.97362779,60.28859348,65.08576329
73.05885506,60.42870926,65.18942967
73.13175386,60.52433533,65.24603345
73.25460978,60.67056175,65.33479846
73.35977702,60.79674099,65.44468268
73.47791595,60.97298456,65.53537736
73.60495283,61.10173671,65.59766295
73.69114494,61.27412093,65.66027015
73.78355489,61.44779160,65.77219125
73.91412950,61.60087907,65.89804889
73.99431818,61.71601630,65.97073328
74.09680532,61.86503002,66.04191681
74.19403945,61.97727273,66.13593482
74.31753859,62.13529160,66.24978559
74.36792453,62.23542024,66.26243568
74.47705832,62.36556604,66.36042024
74.60366638,62.51340051,66.48767153
74.68160377,62.61685249,66.48584906
74.59701973,62.58436964,66.44929245
73.81957547,61.67356346,65.76275729
72.82997427,60.44532590,64.97148370
72.12864494,59.52379931,64.39472556
71.89075901,59.08951544,64.22309177
71.85495283,59.02948113,64.17184820
71.89547599,59.05413808,64.16841767
71.94779160,59.09058748,64.25289451
71.95947684,59.12521441,64.29223842
72.06099914,59.22137650,64.32536449
72.06024871,59.24078045,64.31839623
71.93835763,59.09744854,64.24067324
71.73799314,58.86985420,64.07804460
71.66005575,58.72159091,64.00932676
71.63636364,58.70647513,64.01565180
71.76093482,58.80831904,64.11899657
71.88304031,59.03741424,64.25546741
72.06957547,59.17034734,64.41798885
72.23466981,59.42420669,64.45551029
72.36620926,59.64172384,64.63464837
72.48466981,59.77347770,64.67763722
72.56442967,59.85430961,64.75782590
72.62231990,59.96215695,64.82343482
72.69586192,60.09937822,64.88904374
72.77819468,60.15598199,64.89740566
72.83512007,60.23542024,64.95604631
72.92710120,60.37457118,65.06046312
72.97963122,60.48306175,65.09433962
73.08683533,60.60763293,65.16252144
73.15458834,60.70047170,65.25857633
73.28484134,60.87081904,65.38475557
73.40769726,61.04298885,65.48638508
73.51136364,61.17903087,65.56989708
73.61310034,61.31700257,65.63840051
73.70936964,61.43578473,65.73745712
73.76222127,61.58683533,65.78387650
73.87242710,61.71783877,65.87521441
73.97266295,61.83994425,65.95186535
74.03827187,61.93385506,65.97652230
74.14740566,62.05906947,66.12703688
74.15737564,62.11084906,66.13614923
73.51801029,61.40030017,65.59326758
72.50310892,60.14183105,64.69221698
71.68149657,59.03419811,64.03419811
71.29202401,58.46162093,63.66187822
71.14740566,58.29813465,63.56228559
71.18417667,58.30510292,63.61020583
71.20840480,58.28473413,63.69618353
71.22223413,58.27562178,63.68364065
71.24989280,58.31464408,63.69350343
71.30756861,58.40598199,63.75868353
71.24946398,58.35345197,63.73831475
71.10087907,58.15748285,63.54363208
70.95990566,57.99978559,63.48391938
70.94071612,57.95572470,63.47737993
71.01275729,58.01511578,63.53226844
71.21183533,58.25771870,63.66981132
71.37253431,58.44286021,63.85023585
71.50385935,58.66423671,63.97834477
71.65673242,58.87757290,64.05617496
71.78752144,59.03001715,64.17860206
71.90169383,59.14140223,64.23038165
71.99260292,59.29770583,64.26811750
72.10816895,59.43321184,64.44779160
72.17935249,59.53205403,64.50332333
72.26157804,59.64579760,64.51200686
72.30928388,59.79234563,64.60152230
72.39944254,59.88400515,64.67838765
72.53216123,60.05210120,64.73263293
72.63121784,60.17795883,64.85484563
72.74935678,60.33040309,64.89022298
72.87478559,60.51200686,65.06560892
72.98177530,60.64965695,65.09219554
73.08340480,60.80360206,65.17281304
73.19350343,60.94843482,65.30049314
73.31078473,61.11074185,65.38990137
73.39719125,61.22695111,65.46151372
73.50460978,61.34980703,65.54899228
73.61052744,61.49217410,65.66048456
73.71397942,61.61106346,65.70111492
73.81003431,61.76608062,65.81110635
73.92613636,61.90448113,65.91219983
74.00578902,62.02144082,65.94918525
74.06646655,62.12650086,66.00235849
73.64033019,61.64183105,65.61438679
72.55531732,60.36277873,64.79116638
71.61706690,59.13421955,63.98477702
71.13807890,58.45819039,63.57397084
70.98595626,58.16627358,63.44864923
70.99153087,58.18235420,63.48745712
71.04138079,58.21998285,63.53366209
71.12532161,58.28870069,63.61824614
71.15201544,58.32568611,63.61685249
71.21494425,58.39483276,63.69350343
71.18985849,58.35859777,63.67956690
71.04599057,58.21408662,63.50632504
70.91337907,58.00343053,63.35120069
70.76114923,57.90008576,63.32547170
70.85741852,57.93589194,63.38207547
71.05177959,58.17356346,63.48316895
71.25343053,58.40480274,63.74120926
71.43396226,58.64601201,63.85077187
71.61899657,58.85570326,63.90973413
71.75385935,59.06046312,64.11620926
71.86417238,59.20486707,64.18514151
71.96301458,59.34573328,64.26683105
72.08394082,59.45829760,64.34337479
72.14944254,59.58919383,64.41573756
72.25225129,59.71129931,64.48424099
72.32997427,59.82096913,64.59734134
72.44929245,59.95315180,64.68364065
72.56678816,60.09187393,64.78398370
72.68428388,60.25203688,64.81871784
72.78741424,60.42313465,64.93471269
72.89290309,60.57665094,65.04641938
73.07997427,60.73863636,65.16831046
73.15212264,60.87939537,65.24303173
73.25675386,61.05413808,65.36267153
73.38207547,61.20583190,65.44082333
73.51211407,61.36267153,65.55435249
73.60527444,61.49614065,65.59648370
73.70004288,61.62885935,65.69596913
73.81753859,61.78409091,65.79652659
73.91798885,61.93428388,65.90705403
74.02765866,62.07611492,65.98584906
74.01329331,62.10999142,65.94489708
73.34273156,61.38153945,65.33072470
72.34541166,60.09691252,64.52830189
71.48949400,58.98198971,63.90480274
71.11363636,58.43353345,63.53130360
71.00310892,58.24174528,63.44671955
71.03119640,58.25996998,63.51318611
71.10623928,58.31764580,63.60752573
71.14515437,58.36620926,63.58855060
71.21569468,58.45819039,63.59862779
71.31378645,58.53419811,63.77733705
71.21623070,58.48595626,63.65834048
71.11159949,58.30199400,63.55692539
70.97759434,58.10945540,63.39933533
70.96537307,58.04770583,63.36524443
71.01865352,58.14150943,63.44704117
71.20722556,58.36267153,63.61567324
71.35120069,58.60849057,63.74849914
71.57150515,58.85345197,63.92249142
71.73649228,59.02058319,64.05317324
71.89804889,59.22845197,64.17013293
71.97577187,59.33747856,64.21054889
72.05220840,59.46365780,64.25611063
72.14515437,59.59734134,64.38529160
72.19972127,59.69114494,64.41005575
72.27272727,59.79073756,64.44146655
72.34433962,59.91359348,64.55596055
72.49292453,60.06389365,64.67688679
72.60720412,60.16037736,64.76843911
72.70025729,60.30789022,64.82268439
72.81260720,60.47126930,64.93074614
72.90630360,60.60548885,65.02830189
73.01704545,60.74281732,65.11202830
73.12918096,60.89719125,65.18364065
73.19993568,61.09015866,65.21687393
73.32461407,61.18653516,65.37950257
73.41477273,61.33222556,65.47566467
73.52186964,61.43996569,65.55360206
73.58576329,61.56861063,65.56882504
73.67956690,61.69650515,65.65555317
73.78001715,61.82225557,65.77851630
73.75021441,61.82975986,65.69854202
73.08029588,61.07600772,65.15512436
72.03752144,59.77937393,64.26029160
71.23263293,58.67131218,63.57011149
70.81239280,58.07504288,63.23006003
70.69050172,57.91434391,63.14547599
70.69489708,57.87178388,63.17495712
70.77337050,57.94189537,63.22319897
70.78033877,57.96387221,63.22437822
70.85741852,58.10077187,63.30896226
70.92249142,58.16520154,63.36888937
70.88314751,58.09433962,63.35055746
70.74346055,57.92099057,63.18021012
70.59873499,57.70315180,63.08822899
70.57236278,57.67313465,63.11288593
70.68471269,57.79105918,63.16820326
70.86245712,58.01725986,63.34466123
71.04727702,58.28784305,63.47373499
71.22673671,58.51468696,63.59616209
71.38786449,58.71548027,63.73713551
71.50889794,58.89461835,63.82472127
71.64075901,59.03741424,63.94993568
71.70443825,59.15105060,63.97802316
71.80885506,59.28484134,64.03998714
71.88936535,59.39987136,64.09798456
71.94457547,59.48509863,64.14204545
72.06014151,59.64740566,64.28698542
72.15201544,59.75557461,64.31903945
72.28141081,59.90683962,64.45186535
72.40340909,60.08351201,64.59058748
72.50643225,60.20561750,64.62993139
72.64247427,60.40212264,64.76425815
72.77444254,60.56196398,64.85248714
72.87071184,60.69146655,65.02487136
72.98424099,60.87039022,65.11803173
73.09916381,60.99496141,65.13625643
73.24045883,61.13346913,65.22759434
73.31110635,61.29438250,65.33704974
73.41552316,61.40523156,65.42409949
73.49581904,61.53827187,65.48445540
73.61406518,61.68331904,65.60720412
73.71708834,61.82536449,65.71472985
73.78323328,61.91809605,65.68289022
73.29631218,61.41852487,65.25578902
72.31357204,60.21280017,64.42399228
71.42495712,59.06518010,63.71033448
70.96194254,58.36717410,63.28848628
70.75728988,58.11363636,63.11363636
70.82064751,58.11567324,63.20679674
70.87274871,58.17870926,63.32472127
70.88454117,58.20165094,63.32750858
70.93160377,58.27401372,63.34541166
71.02337050,58.34712693,63.41873928
70.97191252,58.28666381,63.38722127
70.80199400,58.08587050,63.19586192
70.65480274,57.87843053,63.08168954
70.63400515,57.84305317,63.09240995
70.69854202,57.90823328,63.13765009
70.83018868,58.07461407,63.22512864
70.98906518,58.25578902,63.41509434
71.14311750,58.48724271,63.51747427
71.26650943,58.69125214,63.61449400
71.43492710,58.85452401,63.79727702
71.56217839,59.01758148,63.84734134
71.64847770,59.13732847,63.83822899
71.73949400,59.23499142,63.95325901
71.79470412,59.37146226,64.01254288
71.87746569,59.47051887,64.12853774
71.91873928,59.55231561,64.14987136
72.01104202,59.65383791,64.17742281
72.12414237,59.76650943,64.31303602
72.24571184,59.95604631,64.43117496
72.37231990,60.11738851,64.54663379
72.47030446,60.24045883,64.60045026
72.59444683,60.38968696,64.69286021
72.67270583,60.51104202,64.79963551
72.80338765,60.65394511,64.86663808
72.89311750,60.81807461,65.00482419
73.02454974,60.99474700,65.04877787
73.12896655,61.13539880,65.18942967
73.19714837,61.22244854,65.19671955
73.26254288,61.31914666,65.21215695
73.39129503,61.48391938,65.34498285
73.47620069,61.62028302,65.47405660
73.57654374,61.75814751,65.52765866
73.14579760,61.30424528,65.14686964
72.14708405,60.14022298,64.31410806
71.32311321,58.97298456,63.62199828
70.80220840,58.31335763,63.16884648
70.68750000,58.09680532,63.13968696
70.71612350,58.11749571,63.16873928
70.79288165,58.14901372,63.22405660
70.79588336,58.18717839,63.20025729
70.86985420,58.25664666,63.25686106
70.96923242,58.40962693,63.36996141
70.94050172,58.36974700,63.35902659
70.83308319,58.20636792,63.18428388
70.61910377,57.96172813,63.03741424
70.56464408,57.88432676,62.99667667
70.59573328,57.91713122,63.03719983
70.76093482,58.05896226,63.18267581
70.90158662,58.26672384,63.32397084
71.08801458,58.48831475,63.45679674
71.25943396,58.69875643,63.55145798
71.36792453,58.86084906,63.68910806
71.49817753,58.99195969,63.75761149
71.57986707,59.09766295,63.79170240
71.68042453,59.22909520,63.92099057
71.77798027,59.38003859,64.02647942
71.87542882,59.51650943,64.09905660
71.94725557,59.60184391,64.16595197
72.06925386,59.75793310,64.26007719
72.14493997,59.83619211,64.29073756
72.26608062,59.99313894,64.42345626
72.37671527,60.13829331,64.49892796
72.49463979,60.29030875,64.58104631
72.62832333,60.47030446,64.69200257
72.69757719,60.61524443,64.74753431
72.85120069,60.78687822,64.89343911
72.96183533,60.92045455,64.99078045
73.08308319,61.03912950,65.08436964
73.15180103,61.13357633,65.12414237
73.23574185,61.26318611,65.21001286
73.32375643,61.37843053,65.26779588
73.40705403,61.48188250,65.35302316
73.01661664,61.11631647,65.05135077
72.12735849,59.99206690,64.24035163
71.25879074,58.79931389,63.49785592
70.72309177,58.06635935,63.05177959
70.60463122,57.85120069,63.01736707
70.61127787,57.85827616,63.00664666
70.69832762,57.93782161,63.08233276
70.74131647,57.98681389,63.12789451
70.81818182,58.05360206,63.21590909
70.89075901,58.16262864,63.28955832
70.83983705,58.10977702,63.26265009
70.72287736,57.95979846,63.06828902
70.59230274,57.76018439,62.91498714
70.51929674,57.71869640,62.86749571
70.55017153,57.72855918,62.95926244
70.69671955,57.85495283,63.05606775
70.87542882,58.08447684,63.17024014
71.04577616,58.27326329,63.39075901
71.20808319,58.52626501,63.49539022
71.34787736,58.71794597,63.64847770
71.48048885,58.86042024,63.71226415
71.55585334,58.98123928,63.77262007
71.64922813,59.08554889,63.83469125
71.70765437,59.22009005,63.88175386
71.80242281,59.30413808,63.96344340
71.91777444,59.43299743,64.08243997
72.02551458,59.58340480,64.20475986
72.12328473,59.71569468,64.25471698
72.20915523,59.83737136,64.34466123
72.30478130,59.95293739,64.41948971
72.42635077,60.12810892,64.52519297
72.56796741,60.28451973,64.63121784
72.68621355,60.41991852,64.70036449
72.82600772,60.60302316,64.83715695
72.93664237,60.72030446,64.96237136
73.01618782,60.88025300,65.01768868
73.15791166,61.05692539,65.09637650
73.28719983,61.22309177,65.18149657
73.41037736,61.37349914,65.33812178
73.49731990,61.48231132,65.39954974
73.36749571,61.39601201,65.29459691
72.53076758,60.34723413,64.52883791
71.53816467,59.03644940,63.72727273
70.88529160,58.16852487,63.16466552
70.63604202,57.80585334,62.98917238
70.61181389,57.76361492,62.98745712
70.65308748,57.75707547,63.00921955
70.67592196,57.75761149,63.05563894
70.69800600,57.77111921,63.07343482
70.76693825,57.86256432,63.14043739
70.84262436,57.95240137,63.15201544
70.77165523,57.84005146,63.13250429
70.62660806,57.65641081,62.97716552
70.52969554,57.54256003,62.86224271
70.52026158,57.56464408,62.92699400
70.68213979,57.73402659,63.05671098
70.91959691,57.98885077,63.22963122
71.08672813,58.17356346,63.37746569
71.27454974,58.42206261,63.47609348
71.41841767,58.61953259,63.64762007
71.56968268,58.81839623,63.71376501
71.69018010,58.96483705,63.84348199
71.75600343,59.08790738,63.93546312
71.82911664,59.18717839,63.97191252
71.92184820,59.30006432,64.04298885
72.01672384,59.42924528,64.11342196
72.14418954,59.57086192,64.21858919
72.24045883,59.70036449,64.32129074
72.35366638,59.83887221,64.37810892
72.47159091,59.98509863,64.50846913
72.61202830,60.18213979,64.63046741
72.76822470,60.34777015,64.77186964
72.91477273,60.56142796,64.90340909
73.01072041,60.70947684,64.96933962
73.12950257,60.85763293,65.06968268
73.21247856,60.98241852,65.15415952
73.33093911,61.15147942,65.26618782
73.49699828,61.33190395,65.37414237
73.54427530,61.43900086,65.40576758
73.67013293,61.55306604,65.53527015
73.77594340,61.68953688,65.56024871
73.88368353,61.82450686,65.72587907
73.41445111,61.29223842,65.27680103
72.29706261,59.92935249,64.36181389
71.32922384,58.67956690,63.55649657
70.78548456,57.91798885,63.20443825
70.74581904,57.76983276,63.05070755
70.75235849,57.78259005,63.09948542
70.79877787,57.81292882,63.14869211
70.81839623,57.86170669,63.17581475
70.87039022,57.88432676,63.21816038
70.98842196,58.00857633,63.30167238
70.99914237,57.99528302,63.33554889
70.84669811,57.82504288,63.18889365
70.69961407,57.67045455,63.04674099
70.66380789,57.61385077,63.06560892
70.72448542,57.68074614,63.04824185
70.89054460,57.87746569,63.22094768
71.03108919,58.05939108,63.42924528
71.24592624,58.32418525,63.49035163
71.41412950,58.56743139,63.67785163
71.57750858,58.75804031,63.80027873
71.73574185,58.92913808,63.93664237
71.85023585,59.10173671,64.00954117
71.91241424,59.19822041,64.05971269
72.02572899,59.34777015,64.14429674
72.10355918,59.44039451,64.24463979
72.21462264,59.57933105,64.31710978
72.35656089,59.73970840,64.41981132
72.45175815,59.86921098,64.53945111
72.60334477,60.04331046,64.62435678
72.73059605,60.20615352,64.75568182
72.89279588,60.39837050,64.89408233
72.99367496,60.53569897,65.00460978
73.14740566,60.71665952,65.08694254
73.27133362,60.86717410,65.17313465
73.36192110,61.05231561,65.26693825
73.52444254,61.21998285,65.42538593
73.64526158,61.35581046,65.56142796
73.73992281,61.51843911,65.59176672
73.85066467,61.67506432,65.70272298
73.97952401,61.80585334,65.76854631
74.03280446,61.92731561,65.77980274
73.65169383,61.50160806,65.42999571
72.64601201,60.21097770,64.67238422
71.65587479,58.93589194,63.76350772
71.13411235,58.16648799,63.39376072
70.94586192,57.93664237,63.22330617
70.98992281,57.91831046,63.29266724
71.12124786,58.06185678,63.41005575
71.13486278,58.07246998,63.42388508
71.22759434,58.18213979,63.47995283
71.37885935,58.36470840,63.61127787
71.33490566,58.34948542,63.57032590
71.19811321,58.13550600,63.47963122
71.05810463,57.95990566,63.32761578
70.99238851,57.88089623,63.32750858
71.00107204,57.90951973,63.34777015
71.19811321,58.12242710,63.51650943
71.38057461,58.34369640,63.63400515
71.56582333,58.60656089,63.75643225
71.71826758,58.84712693,63.91852487
71.89847770,59.04406089,64.05242281
72.05660377,59.26436535,64.22598628
72.16863208,59.39097341,64.31550172
72.24978559,59.47963122,64.35162950
72.29845626,59.59969983,64.37864494
72.38089623,59.72502144,64.48231132
72.52444254,59.83940823,64.55167238
72.61706690,59.98241852,64.67581475
72.70122213,60.10002144,64.71151372
72.78162521,60.24003002,64.80735420
72.90458834,60.38100343,64.91252144
73.02958834,60.53151801,65.00021441
73.15823328,60.69746998,65.13529160
73.21226415,60.78301887,65.16209262
72.64172384,60.10141509,64.67324185
71.61953259,58.84037307,63.80413808
70.83458405,57.77133362,63.19650515
70.45936964,57.27197684,62.91863208
70.43021012,57.24817753,62.91069897
70.49860635,57.28548456,62.97201973
70.58790738,57.38357633,63.03280446
70.69093053,57.51082762,63.12017581
70.86159949,57.72180532,63.27197684
70.98081046,57.84294597,63.31078473
70.89376072,57.75439537,63.26490137
70.72759434,57.54513293,63.12167667
70.64944254,57.45433105,63.02530017
70.66756003,57.44286021,63.08115352
70.74228130,57.57439966,63.15394511
70.94039451,57.83662093,63.26650943
71.16166381,58.06453688,63.46998285
71.36974700,58.36996141,63.63882933
71.52873070,58.60527444,63.77036878
71.68696398,58.78752144,63.91295026
71.78141081,58.93428388,63.96001286
71.86224271,59.05220840,64.03762864
71.94661235,59.16895369,64.10634648
72.05928388,59.30606775,64.18599914
72.15319468,59.42763722,64.25246569
72.25493139,59.53344768,64.36813894
72.06593053,59.32107633,64.15748285
71.19296741,58.31882504,63.50000000
70.31485849,57.11974700,62.77776587
69.77937393,56.49957118,62.33512007
69.72598628,56.31410806,62.30381647
69.77079760,56.34176672,62.40523156
69.93171098,56.48595626,62.46172813
69.97587907,56.56550172,62.52283448
70.09852058,56.75611063,62.63882933
70.28527015,56.96880360,62.79792024
70.27379931,56.98649228,62.81603774
70.21558748,56.92484991,62.72652230
70.13325472,56.75675386,62.65448113
70.12810892,56.75310892,62.66069897
70.22126930,56.88829331,62.70797599
70.36449400,57.09455403,62.87928816
70.63807890,57.42345626,63.07547170
70.85313036,57.71183533,63.18739280
71.04706261,57.95572470,63.41991852
71.24067324,58.20207976,63.52990995
71.33897942,58.35806175,63.61985420
71.46387221,58.51661664,63.74260292
71.55842624,58.63668525,63.86181389
71.66895369,58.81260720,63.92131218
71.78709262,58.96676672,63.99849914
71.88218268,59.07043310,64.04920669
72.01372213,59.24828473,64.14665523
72.12639365,59.44200257,64.25096484
72.29481132,59.61449400,64.40759005
72.37821612,59.74378216,64.41916810
72.52101201,59.91766724,64.58533448
72.62650086,60.01565180,64.66016295
72.76490137,60.21172813,64.77626501
72.88604202,60.38025300,64.90448113
72.98102487,60.53055317,64.93385506
73.10891938,60.69854202,65.07204117
73.30124357,60.88679245,65.21698113
73.41520154,61.05135077,65.31421527
73.51854631,61.20894082,65.43085334
73.60398799,61.32504288,65.49228130
73.71558748,61.47930961,65.58243997
73.43106775,61.20443825,65.30177959
72.38840051,59.92592196,64.44779160
71.25536021,58.51543739,63.52165523
70.62510720,57.62124786,63.00482419
70.39558319,57.32675815,62.79202401
70.43246141,57.33533448,62.81453688
70.48917238,57.40619640,62.92699400
70.53033877,57.43406947,62.96172813
70.55971269,57.45529588,63.03098199
70.64762007,57.56978988,63.06700257
70.69832762,57.60398799,63.08490566
70.62071184,57.50728988,62.98520583
70.48027444,57.35184391,62.92216981
70.42860206,57.25064322,62.82289880
70.49871355,57.31796741,62.89944254
70.64644082,57.51715266,63.05638937
70.86674528,57.77326329,63.22352058
71.08651372,58.06314322,63.38304031
71.30746141,58.33704974,63.58940823
71.42817324,58.50150086,63.66530875
71.52551458,58.64536878,63.70969125
71.64290309,58.78634220,63.82750858
71.78494854,58.95111492,63.92624357
71.85784734,59.04952830,64.01908233
71.92581475,59.16102058,64.08104631
72.03795026,59.30981990,64.19125214
72.13304031,59.44972127,64.24474700
72.30081475,59.64879931,64.39279588
72.41187822,59.76179245,64.49056604
72.51661664,59.92141938,64.57686535
72.65137221,60.08447684,64.71419383
72.77819468,60.28484134,64.77519297
72.91680961,60.47512864,64.91723842
73.07064751,60.64075901,64.99195969
73.18460549,60.78709262,65.11856775
73.29448971,60.96087050,65.20979846
73.41702401,61.11899657,65.38207547
73.51908233,61.24506861,65.41530875
73.60945540,61.38132504,65.47309177
73.74346055,61.57043310,65.57214837
73.85666810,61.71022727,65.69929245
73.81807461,61.72330617,65.69093053
73.01876072,60.80027873,64.97759434
71.85237993,59.34551887,63.99367496
70.94972127,58.17935249,63.23788593
70.55113636,57.61996141,62.94800600
70.50889794,57.52326329,62.96944683
70.54084477,57.50375214,63.02647942
70.54191681,57.55263722,62.97630789
70.60355918,57.55188679,63.02058319
70.72341338,57.71119211,63.06153516
70.81003431,57.77722985,63.18267581
70.73938679,57.71623070,63.13518439
70.55831904,57.53130360,62.95690395
70.44103774,57.36106346,62.81346484
70.43396226,57.36320755,62.89086621
70.55210120,57.49699828,62.99528302
70.76447256,57.73402659,63.11138508
70.92409949,57.99571184,63.26222127
71.14633362,58.27412093,63.44328902
71.33801458,58.48402659,63.59937822
71.48767153,58.69071612,63.70186535
71.61106346,58.83833619,63.79631218
71.69350343,58.97330617,63.84530446
71.82129074,59.11117067,63.94135935
71.89976415,59.18835763,64.03334048
71.97909520,59.32493568,64.11374357
72.07525729,59.45904803,64.18417667
72.17613636,59.57643654,64.29599057
72.30981990,59.76007719,64.42710120
72.44382504,59.93932247,64.51500858
72.57600772,60.09401801,64.65083619
72.69950686,60.26790309,64.69286021
72.83093911,60.42013293,64.82750858
72.99292453,60.62371355,64.97041166
73.09316038,60.76983276,65.04127358
73.22673671,60.93599914,65.16627358
73.30746141,61.06110635,65.19789880
73.41455832,61.23402659,65.29191681
73.53612779,61.42570755,65.39097341
73.36363636,61.23156089,65.25643225
72.38743568,60.04309605,64.40415952
71.21312178,58.64065180,63.45390223
70.51243568,57.70025729,62.89558319
70.24742710,57.32246998,62.67538593
70.24635506,57.27594340,62.72748714
70.28355489,57.29663379,62.70958405
70.35023585,57.37617925,62.81485849
70.43321184,57.51039880,62.87339194
70.61642367,57.71483705,63.03044597
70.61856775,57.71590909,63.03301887
70.45636792,57.55006432,62.81721698
70.27958834,57.30531732,62.72427101
70.17935249,57.13218268,62.62575043
70.22855918,57.19318182,62.72384220
70.40683962,57.39997856,62.84659091
70.58983705,57.64858491,62.96054889
70.80638937,57.94125214,63.15716123
70.96226415,58.20347341,63.32761578
71.12017581,58.37231990,63.44007290
71.25686106,58.53537736,63.53537736
71.32482847,58.61985420,63.60334477
71.42506432,58.81743139,63.68985849
71.51543739,58.92431389,63.76543739
71.56753859,58.99828473,63.75707547
71.63872213,59.08812178,63.84991424
71.77990995,59.24624786,63.97030446
71.90855489,59.40362350,64.08093911
71.87210549,59.41305746,64.02798027
71.13143225,58.56196398,63.39944254
69.98724271,57.19607633,62.56893225
69.26050600,56.22512864,61.85891938
68.94800600,55.80928388,61.64654803
68.91241424,55.73081046,61.63089623
68.98874357,55.83436964,61.73552744
69.08608491,55.91048456,61.79577616
69.17409949,56.07075472,61.89279588
69.39397513,56.30821184,62.05692539
69.42903087,56.35698971,62.13893654
69.35184391,56.28087479,62.03987993
69.14301029,56.06046312,61.86020583
69.07804460,56.01200686,61.77036878
69.15308748,56.05467410,61.82547170
69.35784734,56.26801029,62.02315609
69.57354202,56.56196398,62.20090051
69.84626930,56.86492281,62.38486278
70.08833619,57.14729846,62.51801029
70.22963122,57.31968268,62.72362779
70.37639365,57.54020154,62.88775729
70.46891081,57.70132933,62.93632075
70.55070755,57.85087907,62.94521870
70.63840051,57.97352058,63.03312607
70.71430103,58.07643654,63.12210549
70.83479846,58.24667667,63.18321184
70.95036449,58.38775729,63.32536449
71.11803173,58.58651372,63.43278302
71.21194254,58.72223413,63.57600772
71.33801458,58.84509005,63.65876930
71.46880360,59.05156518,63.74281732
71.61813894,59.21633791,63.85227273
71.77562178,59.40876930,63.97480703
71.84648370,59.57397084,63.98906518
72.02851630,59.75428816,64.12864494
72.12896655,59.90555317,64.24967839
72.26265009,60.06389365,64.38893654
72.37339194,60.20572470,64.47502144
72.46537307,60.35623928,64.55821184
72.62532161,60.50675386,64.66434391
72.71537307,60.68814322,64.74817753
72.71162093,60.75021441,64.76072041
71.97041166,59.92152659,64.13464837
70.60323756,58.28141081,62.99796312
69.54223842,56.89258148,62.12650086
68.97019726,56.15394511,61.73906518
68.83951544,55.92506432,61.59852058
68.86985420,55.94532590,61.63143225
68.92409949,55.99442539,61.68996569
68.95165094,56.01854631,61.71280017
69.02530017,56.11813894,61.76265009
69.12939537,56.24260292,61.82665094
69.09026587,56.20518868,61.80253002
68.94039451,56.01072041,61.66680961
68.81485849,55.85709691,61.58029588
68.79770583,55.83801458,61.57729417
68.93246141,55.95047170,61.61385077
69.12039022,56.18771441,61.85581046
69.39751286,56.48777873,62.05081475
69.59240995,56.80231561,62.21955403
69.81099914,57.06936106,62.36974700
69.94886364,57.25761149,62.53419811
70.10795455,57.42356346,62.66691681
70.26843911,57.60613208,62.78173242
70.34326758,57.73970840,62.76136364
70.42238422,57.86063465,62.85205832
70.53291166,57.99281732,62.96730274
70.61728130,58.13765009,63.03044597
70.73016724,58.26082762,63.13990137
70.88464837,58.42066895,63.26993997
71.03066038,58.60763293,63.41509434
71.17281304,58.76608062,63.47319897
71.29781304,58.97405660,63.54824185
71.47105489,59.15844768,63.69253859
71.60924099,59.33136792,63.85366638
71.71440823,59.47491424,63.92688679
71.84680532,59.63711407,63.99924957
72.02497856,59.86717410,64.14697684
72.11288593,60.01147084,64.24045883
72.23820755,60.16616638,64.36449400
72.36888937,60.31121355,64.46237136
72.47255575,60.45368782,64.58704974
72.61942539,60.62521441,64.68953688
72.72298456,60.80917667,64.79266724
72.24249571,60.30960549,64.33447684
70.97030446,58.83372642,63.34251715
69.72737993,57.29706261,62.32450686
69.02958834,56.37221269,61.68267581
68.82793739,56.03484134,61.55563894
68.75889794,55.93685678,61.56357204
68.79695540,55.97577187,61.60077187
68.86149228,56.01801029,61.60398799
68.95786878,56.13668525,61.64118782
69.12231990,56.32343482,61.82836621
69.11535163,56.33747856,61.84969983
68.91852487,56.15694683,61.63400515
68.76533019,55.90619640,61.52583619
68.72662950,55.82439966,61.54395369
68.81978988,55.93750000,61.56936106
69.03859348,56.18246141,61.78837907
69.24410377,56.41691681,61.93857204
69.45797599,56.73563465,62.09262436
69.69425386,56.99528302,62.25128645
69.89847770,57.24710549,62.42184820
70.05092196,57.45315180,62.55392367
70.18460549,57.60870497,62.67560034
70.25761149,57.73574185,62.73252573
70.38357633,57.84326758,62.80874786
70.51275729,58.03634220,62.92184820
70.61717410,58.16241424,63.00782590
70.75632504,58.27669383,63.11974700
70.82150515,58.41219983,63.18171098
70.97759434,58.59037307,63.29041595
71.08629931,58.80049314,63.42785163
71.19168096,58.91788165,63.50042882
71.35398799,59.10934820,63.63872213
71.48981561,59.30435249,63.77304889
71.61888937,59.48767153,63.83222556
71.77969554,59.67549314,63.96322899
71.85313036,59.78301887,64.09755575
71.95593911,59.89418954,64.10023585
72.07697256,60.06839623,64.23820755
72.23981561,60.30092196,64.40876930
72.05488851,60.04952830,64.19146655
70.93900086,58.82171955,63.21580189
69.61288593,57.24110206,62.18835763
68.76050600,56.16466552,61.49399657
68.49281732,55.79277444,61.32922384
68.52519297,55.78719983,61.29792024
68.59691252,55.80338765,61.42238422
68.68492710,55.93814322,61.48316895
68.86170669,56.08147513,61.67817324
69.06485849,56.33694254,61.77969554
69.08844340,56.37189108,61.81528731
68.93192539,56.18771441,61.62939537
68.69425386,55.91916810,61.46719554
68.60162950,55.77873070,61.38636364
68.60591767,55.82761578,61.38957976
68.77755146,56.01790309,61.50418096
68.99367496,56.22995283,61.72652230
69.26382933,56.56400086,61.88432676
69.52219125,56.82493568,62.11503002
69.70454545,57.10784734,62.31024871
69.86856775,57.30789022,62.41809605
69.97759434,57.46022727,62.50353774
70.07740137,57.62114065,62.62864494
70.17452830,57.74313894,62.67109777
70.29641938,57.84573328,62.73788593
70.39879931,57.99678388,62.83061750
70.48852916,58.13539880,62.90748285
70.58844340,58.27369211,63.01297170
70.69929245,58.44757719,63.07922384
70.87585763,58.64043739,63.20561750
70.99785592,58.79309605,63.33190395
71.12575043,58.97116209,63.45508148
71.26725986,59.16027015,63.55906947
71.42945969,59.32783019,63.66509434
71.53923671,59.52658662,63.78130360
71.67281304,59.70647513,63.96247856
71.79888508,59.83447684,63.98241852
71.90887650,59.99335334,64.11449400
72.04277444,60.12617925,64.20143654
72.14944254,60.28451973,64.28987993
72.25857633,60.42174099,64.36213551
72.06925386,60.28494854,64.23241852
70.97341338,59.06989708,63.29095197
69.61395798,57.41584477,62.16584477
68.67817324,56.18717839,61.45368782
68.26961835,55.60988422,61.04320326
68.20722556,55.49731990,61.08930103
68.26618782,55.51575901,61.12124786
68.31164237,55.55671098,61.16262864
68.35398799,55.62628645,61.18074614
68.46172813,55.74453259,61.27798027
68.55199400,55.83908662,61.33780017
68.47352058,55.80542453,61.29770583
68.33394082,55.60345197,61.13711407
68.15941252,55.39504717,61.03248285
68.18138937,55.40287307,61.09476844
68.34605489,55.57161235,61.19082333
68.57954545,55.86749571,61.36556604
68.82525729,56.15866209,61.55274443
69.05681818,56.46054889,61.80038593
69.27058319,56.72169811,61.92731561
69.45283019,56.95240137,62.12392796
69.62328473,57.15566038,62.22448542
69.74120926,57.30917667,62.32611492
69.84391081,57.41873928,62.43353345
69.94318182,57.57204117,62.48370497
70.07493568,57.72137650,62.56828902
70.19093053,57.89547599,62.64011578
70.30864065,58.03891509,62.77776587
70.40973413,58.15501715,62.83254717
70.56989708,58.34862779,62.96698113
70.73284734,58.58619211,63.15330189
70.90394511,58.76758148,63.22620069
71.03494854,58.94125214,63.36256432
71.16959691,59.09734134,63.45840480
71.29899228,59.29813465,63.57193396
71.45883362,59.50686106,63.72727273
71.61888937,59.67742281,63.88496998
71.73156089,59.81453688,63.95497427
71.84155232,59.98327616,64.06839623
71.95411664,60.13186106,64.14579760
72.07279160,60.29577616,64.19972127
72.14290309,60.41541595,64.29534734
71.67881647,59.93353345,63.88464837
70.37617925,58.44714837,62.82322041
69.14901372,56.90051458,61.79695540
68.34230274,55.86245712,61.19736278
68.09487564,55.46451544,60.98895798
68.08243997,55.38604202,61.00954117
68.14558319,55.45497427,61.03001715
68.21494425,55.51404374,61.12210549
68.31196398,55.64708405,61.19811321
68.48520583,55.81775300,61.32418525
68.49195969,55.85280875,61.32257719
68.37199828,55.67088336,61.24292453
68.19446827,55.44768439,61.04373928
68.06217839,55.32246998,60.96633791
68.10291595,55.37307033,60.99120926
68.29191681,55.55285163,61.21580189
68.52615780,55.83426244,61.36535163
68.81753859,56.17903087,61.54009434
69.08972985,56.48424099,61.76961835
69.30177959,56.77412093,61.93428388
69.43889365,56.96805317,62.03666381
69.61159949,57.15426672,62.17806604
69.70604631,57.30703259,62.25879074
69.78441252,57.46194254,62.33930103
69.92399228,57.62532161,62.47716552
70.02047599,57.72888079,62.52197684
70.11803173,57.85302316,62.62253431
70.25203688,58.02026158,62.68750000
70.44275300,58.24013722,62.91295026
70.62478559,58.47212693,63.02444254
70.79641938,58.65791166,63.16970412
70.92377787,58.85259434,63.27669383
71.10827616,59.06282161,63.41230703
71.25471698,59.24271012,63.60720412
71.41788165,59.46633791,63.72813036
71.59123070,59.66455832,63.85388079
71.72277015,59.81282161,63.96054889
71.84594768,59.99217410,64.05992710
71.97920240,60.17924528,64.15523156
72.13561321,60.38304031,64.31250000
72.21558748,60.53291166,64.37575043
71.81646655,60.12607204,63.99635506
70.72512864,58.81282161,63.07761578
69.66595197,57.43203259,62.19189537
68.94704117,56.54116638,61.63186106
68.73327616,56.13486278,61.43674957
68.73970840,56.12006861,61.41745283
68.78998714,56.14376072,61.48617067
68.84541166,56.19446827,61.53516295
68.97545026,56.32815180,61.61781732
69.11760292,56.48123928,61.75932676
69.14429674,56.51179245,61.76929674
69.02369211,56.35988422,61.61438679
68.85570326,56.14343911,61.47641509
68.75954117,55.99710549,61.40512436
68.76147084,56.03269726,61.44350343
68.93739280,56.19897084,61.60870497
69.12092624,56.45454545,61.75364494
69.34809177,56.70979846,61.95315180
69.55328045,56.95658233,62.10388079
69.77122642,57.20583190,62.25235849
69.89719125,57.38153945,62.35752573
70.02101201,57.54609777,62.44446827
70.13421955,57.69125214,62.54909949
70.23048885,57.82139794,62.65866209
70.35538165,57.96601630,62.71794597
70.40051458,58.08683533,62.82096913
70.54331046,58.24142367,62.91337907
70.64161664,58.38218268,62.98209691
70.79727702,58.56099914,63.10645369
70.88625643,58.66584477,63.17442110
70.98220412,58.80617496,63.28623499
71.09155232,58.95540309,63.34669811
71.25814751,59.13464837,63.46376501
71.38153945,59.34573328,63.59058748
71.51522298,59.51436535,63.68996569
71.64290309,59.69521870,63.81057033
71.81946827,59.86149228,63.96312178
71.90576758,60.00246569,63.99624786
71.68267581,59.75278731,63.79888508
70.75600343,58.66295026,63.04995712
69.79545455,57.43160377,62.23863636
69.14719125,56.56035592,61.71515866
68.96269297,56.28537736,61.53173242
68.94607633,56.25825472,61.57064751
68.99774871,56.28484134,61.66798885
69.10291595,56.39601201,61.70969125
69.23810034,56.54148799,61.79792024
69.36031304,56.70829760,61.95422384
69.37875214,56.74517581,61.90490995
69.26575901,56.55049314,61.76725986
69.05906947,56.33865780,61.60430961
69.00750429,56.29566895,61.56174957
69.05992710,56.30328045,61.65962693
69.22995283,56.46687393,61.74753431
69.40405232,56.72116209,61.91605918
69.62392796,56.94103774,62.12178388
69.78902230,57.16659520,62.25686106
69.98102487,57.41713122,62.43621355
70.10141509,57.59326758,62.50128645
70.19736278,57.70443825,62.61503002
70.28998714,57.82557890,62.64268868
70.39890652,57.95936964,62.72630789
70.48445540,58.06057033,62.78183962
70.53248285,58.14504717,62.83158233
70.64472556,58.28151801,62.93803602
70.71065609,58.41305746,62.99496141
70.86117067,58.57407804,63.14719125
70.98595626,58.75932676,63.22673671
71.10291595,58.93632075,63.36363636
71.24635506,59.08683533,63.42753002
71.39440395,59.27047599,63.58351201
71.52701544,59.41295026,63.66059177
71.62146226,59.59916381,63.78762864
71.75643225,59.75171527,63.85420240
71.84240995,59.87006861,63.93567753
71.97169811,60.05145798,64.05038593
72.08297599,60.18481990,64.19489708
72.13593482,60.30424528,64.23370497
71.82354202,59.96719554,63.94554031
70.83233276,58.74935678,63.11921098
69.81936106,57.40405232,62.24110206
69.19125214,56.56925386,61.70004288
69.01565180,56.25857633,61.56839623
69.03548456,56.23402659,61.60280875
69.08458405,56.28312607,61.64054460
69.09358919,56.28977273,61.63539880
69.13915094,56.33340480,61.69082333
69.28795026,56.50128645,61.85484563
69.29513293,56.52690823,61.81657376
69.18053173,56.40587479,61.75771870
69.02883791,56.22201973,61.62810892
68.98177530,56.18953688,61.54009434
69.05671098,56.19157376,61.63561321
69.19607633,56.35152230,61.77948113
69.39590480,56.59509005,61.96194254
69.58576329,56.88143225,62.08104631
69.76018439,57.12510720,62.19864923
69.95529588,57.33351201,62.32364923
70.09251715,57.47416381,62.48767153
70.20958405,57.64740566,62.61117067
70.30242281,57.79041595,62.64440395
70.42527873,57.92742281,62.75568182
70.51157804,58.03194683,62.82161235
70.60613208,58.18481990,62.91187822
70.75032161,58.30864065,63.01768868
70.85902659,58.45143654,63.11438679
70.98799314,58.60591767,63.22598628
71.11620926,58.78387650,63.28923671
71.26007719,58.97898799,63.43053173
71.39065180,59.15115780,63.55896226
71.50728988,59.27894511,63.69168096
71.66745283,59.46397942,63.79674099
71.76254288,59.62403516,63.91670240
71.92506432,59.80499571,64.01575901
72.02283448,59.91691681,64.09401801
72.14847770,60.08501286,64.20250858
72.26736707,60.25921955,64.28494854
72.36813894,60.36127787,64.33447684
72.49195969,60.53248285,64.44243139
72.23209691,60.25632504,64.21280017
71.18910806,59.04524014,63.36513722
70.15619640,57.69886364,62.49860635
69.52379931,56.78987993,62.00900515
69.33662093,56.53280446,61.86470840
69.38036021,56.55338765,61.94725557
69.53891509,56.71837479,62.08243997
69.58940823,56.77144082,62.08211835
69.70497427,56.93010292,62.15930532
69.84691252,57.09691252,62.35548885
69.84273156,57.08822899,62.28998714
69.70819039,56.91359348,62.14172384
69.53226844,56.64826329,62.00032161
69.49839194,56.59787736,61.96129931
69.55488851,56.66123499,62.04952830
69.70197256,56.83640652,62.18653516
69.90737564,57.09112350,62.35377358
70.10109348,57.36310034,62.54406089
70.27433533,57.58608491,62.66327187
70.45894082,57.77798027,62.82300600
70.55885506,57.92420669,62.86588765
70.70207976,58.12103345,62.96687393
70.80199400,58.24624786,63.08415523
70.88625643,58.36588765,63.08651372
71.00053602,58.47352058,63.17270583
71.12285592,58.61427959,63.31389365
71.21376501,58.73391938,63.38614923
71.33093911,58.86545883,63.51790309
71.44168096,58.99935678,63.62950257
71.55060034,59.17259863,63.69296741
71.74571184,59.38572041,63.81796741
71.81925386,59.48284734,63.93760720
71.96076329,59.67302744,64.01243568
72.08554889,59.82975986,64.14000858
72.19521870,60.00482419,64.21472985
72.33436964,60.16262864,64.34273156
72.43213979,60.28548456,64.42806604
72.56217839,60.43953688,64.52744425
72.67270583,60.59037307,64.66155660
72.75150086,60.73391938,64.68181818
72.71215695,60.67463551,64.60924099
71.83351201,59.60366638,63.87017581
70.56914666,58.05713979,62.88003859
69.64987136,56.87864494,62.08812178
69.30992710,56.36738851,61.77776587
69.30263722,56.27133362,61.85237993
69.38132504,56.37060463,61.93342624
69.44093053,56.44457547,62.00268010
69.47416381,56.47137650,62.01254288
69.58962264,56.60548885,62.12028302
69.64611921,56.70358062,62.17828045
69.63111063,56.63432676,62.11331475
69.39847770,56.39376072,61.93364065
69.28430532,56.23198971,61.84562607
69.30285163,56.22995283,61.84380360
69.45529588,56.39826329,61.96301458
69.67806604,56.63711407,62.15919811
69.89654803,56.92120497,62.31764580
70.10162950,57.21226415,62.50021441
70.28559177,57.42581475,62.69060892
70.41981132,57.63379074,62.79652659
70.52262007,57.75739708,62.88196827
70.65641081,57.91713122,63.01447256
70.74860635,58.04491852,63.03269726
70.83930103,58.15383791,63.11052744
70.93653516,58.29052316,63.22362779
71.03323328,58.40030017,63.27508576
71.14354631,58.53076758,63.34937822
71.30295883,58.73091767,63.51908233
71.42785163,58.86824614,63.59959262
71.53805746,59.04298885,63.69071612
71.70786878,59.21472985,63.85388079
71.84626930,59.39365352,63.93010292
71.97855918,59.58404803,64.08919383
72.09744854,59.71494425,64.16305746
72.22159091,59.86631647,64.27519297
72.33083190,60.01801029,64.40351630
72.42152659,60.16745283,64.44039451
72.54288165,60.32525729,64.54802744
72.69125214,60.45904803,64.68524871
72.72041166,60.51479417,64.66766724
72.02122642,59.73885077,64.04481132
70.78827187,58.20679674,63.09830617
69.78505575,56.86052744,62.27519297
69.30317324,56.23241852,61.86084906
69.29288165,56.16573756,61.89858491
69.35109348,56.23659949,61.92184820
69.53033877,56.40255146,62.06014151
69.60388079,56.47780875,62.13990137
69.74035163,56.66037736,62.30874786
69.83951544,56.80092196,62.29963551
69.76522298,56.72662950,62.26500858
69.59101630,56.44436106,62.09830617
69.40855489,56.25310892,61.86460120
69.41927530,56.25439537,61.93278302
69.54663379,56.36052744,62.06936106
69.76918954,56.63153945,62.28248285
70.00589623,56.91734563,62.47009005
70.25289451,57.20572470,62.60945540
70.45336621,57.47780875,62.79406089
70.59069468,57.66423671,62.93867925
70.71140652,57.84991424,63.02079760
70.82161235,57.96440823,63.06410806
70.88925815,58.07579331,63.12296312
71.00096484,58.21537307,63.24517581
71.10430961,58.33115352,63.33479846
71.24003002,58.46880360,63.46129931
71.31099914,58.57557890,63.51618782
71.45776158,58.74271012,63.60891938
71.57600772,58.91777444,63.74153087
71.71376501,59.05188679,63.79674099
71.83983705,59.23370497,63.93760720
71.96762436,59.40137221,64.03366209
72.13239708,59.57836621,64.17677959
72.24871355,59.73777873,64.27487136
72.37778731,59.88786449,64.36642367
72.48702830,60.02583619,64.47030446
72.61610206,60.17227702,64.56528731
72.71397942,60.31346484,64.61042024
72.67967410,60.30724700,64.60720412
71.91412950,59.41884648,63.92270583
70.73198971,57.93589194,62.92409949
69.87006861,56.75857633,62.24549743
69.51811750,56.28805746,61.97459262
69.54674099,56.28880789,62.01801029
69.65512436,56.39762007,62.15533877
69.73992281,56.48434820,62.17195540
69.83265437,56.57407804,62.27562178
69.99003002,56.76361492,62.45015009
70.06657376,56.85495283,62.48788593
69.96280017,56.77390652,62.36052744
69.80124357,56.54138079,62.24506861
69.64933533,56.36331475,62.08158233
69.69554031,56.37457118,62.14150943
69.85066467,56.54448971,62.31635935
70.07611492,56.81046312,62.49549743
70.28880789,57.10827616,62.67731561
70.49303173,57.36631647,62.85087907
70.64772727,57.57525729,62.93975129
70.82139794,57.77251286,63.07997427
70.84455403,57.86856775,63.04223842
70.99614065,58.03730703,63.21097770
71.07525729,58.14879931,63.26801029
71.15973413,58.24914237,63.35355918
71.28141081,58.41563036,63.47480703
71.34959262,58.52755146,63.50782590
71.49388937,58.65791166,63.60495283
71.60087907,58.83158233,63.72652230
71.73638508,58.99003002,63.81700257
71.86856775,59.14922813,63.90137221
72.01093482,59.34519726,64.04952830
72.11288593,59.47673671,64.14461835
72.25214408,59.65351630,64.21076329
72.37103345,59.79963551,64.35859777
72.47448542,59.95047170,64.43246141
72.58833619,60.10870497,64.54738422
72.72512864,60.27101201,64.65716123
72.88743568,60.40823328,64.76372213
72.98231132,60.55906947,64.85366638
73.06121355,60.67141938,64.90769726
72.50117925,60.01961835,64.33415523
71.33490566,58.57032590,63.51758148
70.33040309,57.20068611,62.59734134
69.76533019,56.47437822,62.21365780
69.72920240,56.33340480,62.16337907
69.78033877,56.31914666,62.21087050
69.80896226,56.41423671,62.25621784
69.85774014,56.45293739,62.30328045
69.93096055,56.54609777,62.30981990
70.05370926,56.69564751,62.43642796
70.03130360,56.68096055,62.38593482
69.87617925,56.49195969,62.24238851
69.77069039,56.32236278,62.13003859
69.75578902,56.28194683,62.14086621
69.87671527,56.43867925,62.26457976
70.02197684,56.65555317,62.46880360
70.28205403,56.91863208,62.66777444
70.50321612,57.20497427,62.80038593
70.67024014,57.46269297,62.95325901
70.88014580,57.67967410,63.11663808
71.00739708,57.86953259,63.25782590
71.12757290,58.03087479,63.34326758
71.23842196,58.15544597,63.36942539
71.28505575,58.26211407,63.45786878
71.39322470,58.39644082,63.50686106
71.48327616,58.51093482,63.59283877
71.63304031,58.64397513,63.71237136
71.74667667,58.78312607,63.77583619
71.89376072,58.97201973,63.93728559
72.01650943,59.12993139,64.04931389
72.13722127,59.30145798,64.16080617
72.26661664,59.48852916,64.24260292
72.38239708,59.62918096,64.36588765
72.50139365,59.80992710,64.47009005
72.61642367,59.94489708,64.52722985
72.77176244,60.10859777,64.66155660
72.84455403,60.23198971,64.73220412
72.97512864,60.39365352,64.80231561
73.09433962,60.52530017,64.92002573
73.18256861,60.67399228,64.97030446
73.25514580,60.78473413,65.09455403
72.82171955,60.26340051,64.66884648
71.62510720,58.81485849,63.70422384
70.50621784,57.36706690,62.78752144
69.95100772,56.54256003,62.34894940
69.78923671,56.29802744,62.23499142
69.80992710,56.32064751,62.29427530
69.92292024,56.40705403,62.33994425
69.93246141,56.42667238,62.33962264
69.99721269,56.47770154,62.36556604
70.09048027,56.62692967,62.47041166
70.08780017,56.65941252,62.50525300
69.93792882,56.50782590,62.34444683
69.81850343,56.29148799,62.21172813
69.76693825,56.26693825,62.21633791
69.85216552,56.36009863,62.26018439
70.09048027,56.58640652,62.48606346
70.28291166,56.91798885,62.64762007
70.50600343,57.16037736,62.83233276
70.70240137,57.40544597,62.98091767
70.86331475,57.61159949,63.11159949
70.97480703,57.76704545,63.18814322
71.09723413,57.91841767,63.25418096
71.19714837,58.06764580,63.35966981
71.25546741,58.17635077,63.41948971
71.32064751,58.31893225,63.56207118
71.42292024,58.43599914,63.59509005
71.52798027,58.58179674,63.67442110
71.63807890,58.72277015,63.76908233
71.79684820,58.90448113,63.84444683
71.90876930,59.04749142,63.98745712
72.01908233,59.20283019,64.06003431
72.17592196,59.37960978,64.21065609
72.30542453,59.53977273,64.26597341
72.40158662,59.70711835,64.40544597
72.55638937,59.88550600,64.50000000
72.64815609,60.02873070,64.62371355
72.76072041,60.16659520,64.71805317
72.86406518,60.31968268,64.77444254
72.95143654,60.44736278,64.87317753
73.06057033,60.58243997,64.90019297
73.18803602,60.71612350,65.03902230
73.10045026,60.67206261,64.94543310
72.19521870,59.57965266,64.18471269
70.89504717,57.95743997,63.13111063
70.02615780,56.75021441,62.46548027
69.71247856,56.28387650,62.14622642
69.67152659,56.23563465,62.16016295
69.77154803,56.34916381,62.30242281
69.85591767,56.42753002,62.34819897
69.92120497,56.55199400,62.34980703
70.08361921,56.75986278,62.52101201
70.15608919,56.83018868,62.55445969
70.06314322,56.65855489,62.47973842
69.83158233,56.44114494,62.21580189
69.67967410,56.25171527,62.14987136
69.70626072,56.24249571,62.17066895
69.86867496,56.45036449,62.31292882
70.09616209,56.73960120,62.49453259
70.30531732,57.04309605,62.70647513
70.55295883,57.32933105,62.91423671
70.69543310,57.52840909,63.00160806
70.84562607,57.74892796,63.13486278
70.96312178,57.86663808,63.23391938
71.06689537,58.00085763,63.29909949
71.16080617,58.11813894,63.38271870
71.22566467,58.21344340,63.47244854
71.30628216,58.32686535,63.57793739
71.42570755,58.49367496,63.59337479
71.52980274,58.60334477,63.70240137
71.64290309,58.76897513,63.78762864
71.76693825,58.93331904,63.89108062
71.89526158,59.10645369,64.04513293
72.01522298,59.27658662,64.09562607
72.14504717,59.44478988,64.21237136
72.24195969,59.59852058,64.30349485
72.35795455,59.70743997,64.36631647
72.49281732,59.90169383,64.48831475
72.61213551,59.99656947,64.55510292
72.67313465,60.12360635,64.62017581
72.73627787,60.25664666,64.68846484
72.82257719,60.38990137,64.79384648
72.42474271,59.89322470,64.38550600
71.15469554,58.42270583,63.40512436
69.98263293,56.93031732,62.42324185
69.36556604,56.03066038,61.86749571
69.25632504,55.80070755,61.83479846
69.28259005,55.86234991,61.86963979
69.37853774,55.96087050,61.99689108
69.48081046,56.08158233,62.08351201
69.64086621,56.24120926,62.14429674
69.71247856,56.41659520,62.24378216
69.71880360,56.43364065,62.22137650
69.53033877,56.19736278,62.03741424
69.35237993,55.98466981,61.87167667
69.35066467,55.93299743,61.89912093
69.46966123,56.04170240,61.95036449
69.67924528,56.27915952,62.19232419
69.87725129,56.57472127,62.36953259
70.12006861,56.86170669,62.57568611
70.34905660,57.14772727,62.74957118
70.50343053,57.37585763,62.83404803
70.66916810,57.56110635,62.98713551
70.72973842,57.69779160,63.07322041
70.82740137,57.85034305,63.14150943
70.91541595,57.93642796,63.20358062
71.01672384,58.04952830,63.25514580
71.13539880,58.22030446,63.35130789
71.22877358,58.34519726,63.41981132
71.35366638,58.50503859,63.50718268
71.46494425,58.66112779,63.61996141
71.61159949,58.83865780,63.74131647
71.71258576,58.96687393,63.79984991
71.83865780,59.16348628,63.94050172
71.99731990,59.34787736,64.04856346
72.12103345,59.50075043,64.16691681
72.25289451,59.67763722,64.29513293
72.34991424,59.82590051,64.35398799
72.46269297,60.01329331,64.41466552
72.58254717,60.14579760,64.54695540
72.64922813,60.22963122,64.59069468
72.75686106,60.41252144,64.68224700
72.81442967,60.46258576,64.71087050
72.10645369,59.63304031,64.09509005
70.75257290,57.98949400,62.97384220
69.67270583,56.56635935,62.09701973
69.13250429,55.83983705,61.71376501
69.06743139,55.64504717,61.62489280
69.08211835,55.71548027,61.64043739
69.14150943,55.80596055,61.70797599
69.19125214,55.82911664,61.72234134
69.22255575,55.87521441,61.75900515
69.36149228,56.05681818,61.91745283
69.35441681,56.03066038,61.93096055
69.22309177,55.89590480,61.77476415
69.14183105,55.71344340,61.70658233
69.11835334,55.70325901,61.59605489
69.20604631,55.83597770,61.68782161
69.40823328,56.09755575,61.90651801
69.69146655,56.38936535,62.14622642
69.89472556,56.69661235,62.32289880
70.09487564,56.95851201,62.47566467
70.26522298,57.17131218,62.60398799
70.36824614,57.36095626,62.74774871
70.53741424,57.49088765,62.84852058
70.62617925,57.65748285,62.86695969
70.75268010,57.78548456,62.98509863
70.83972985,57.91241424,63.05906947
70.95165094,58.06571612,63.15619640
71.02390652,58.21923242,63.18514151
71.20743997,58.40726844,63.34380360
71.33029588,58.54320326,63.43149657
71.46505146,58.75042882,63.61599485
71.63293310,58.91295026,63.73863636
71.77144082,59.13121784,63.84562607
71.90201544,59.29824185,63.96483705
72.02090480,59.44864923,64.05285163
72.14065180,59.58919383,64.15780446
72.25600343,59.77122642,64.26736707
72.36513722,59.91295026,64.33426244
72.50686106,60.08597770,64.48113208
72.59616209,60.21730274,64.49774871
72.69103774,60.38100343,64.59326758
72.81153516,60.51479417,64.68224700
72.43674957,60.11299314,64.35463122
71.27304889,58.74238851,63.40555317
70.26500858,57.38915094,62.53837907
69.64301029,56.57632933,62.10055746
69.45486707,56.32965266,61.91605918
69.47362779,56.32890223,61.92302744
69.53473413,56.40458834,61.98006003
69.58340480,56.42903087,62.00836192
69.61202830,56.49517581,62.03076758
69.72609348,56.63539880,62.12639365
69.71987564,56.64354631,62.10516724
69.60377358,56.47898799,62.01693825
69.42399228,56.27583619,61.88389794
69.37950257,56.19468268,61.86234991
69.42956690,56.28183962,61.93835763
69.59830617,56.48788593,62.05092196
69.74378216,56.72727273,62.16273585
69.97662950,56.97448542,62.33855060
70.16831046,57.21976844,62.53151801
70.32879503,57.42570755,62.66005575
70.44800600,57.55735420,62.77369211
70.51500858,57.69339623,62.81882504
70.59230274,57.80778302,62.89483276
70.67131218,57.92860206,62.94639794
70.76007719,58.04824185,62.98284734
70.87296312,58.18364065,63.08179674
70.95379503,58.27948113,63.16027015
71.07632933,58.41723842,63.23048885
71.18021012,58.59230274,63.36417238
71.32825901,58.76179245,63.46698113
71.45701115,58.92592196,63.61074185
71.57933105,59.09884220,63.65308748
71.68085334,59.25010720,63.76725986
71.80413808,59.40812607,63.85045026
71.89847770,59.54084477,63.90598199
72.00128645,59.67581475,64.03066038
72.12092624,59.83962264,64.17002573
72.18364065,59.95100772,64.20143654
72.35752573,60.12124786,64.31786021
72.42613636,60.22888079,64.38990137
72.02433533,59.78334048,63.99667667
70.87650086,58.45668954,63.10441681
69.77069039,57.12124786,62.16370069
69.17699400,56.26039880,61.70765437
69.03784305,56.06035592,61.53226844
69.06132075,56.05939108,61.66466552
69.12382075,56.11888937,61.69521870
69.15801887,56.14365352,61.75064322
69.24871355,56.25471698,61.83469125
69.36985420,56.39000858,61.89944254
69.32482847,56.37092624,61.84198113
69.16991852,56.14504717,61.70057890
68.96119211,55.89922813,61.54759863
68.90201544,55.82632933,61.53923671
68.93846484,55.84691252,61.54716981
69.16659520,56.10634648,61.75728988
69.35495283,56.33522727,61.93599914
69.54684820,56.61481561,62.08243997
69.67302744,56.81067753,62.24120926
69.80992710,56.97416381,62.29148799
69.93524871,57.13186106,62.38593482
70.04524014,57.26779588,62.45776158
70.10924099,57.40662521,62.50075043
70.15105060,57.45979846,62.58051029
70.21044168,57.57129074,62.55906947
70.31067753,57.67688679,62.69468268
70.42731561,57.84369640,62.77079760
70.52326329,57.94286021,62.83887221
70.64054460,58.11653087,62.94007290
70.76447256,58.25568182,63.05692539
70.87553602,58.38732847,63.19350343
70.49292453,57.98627787,62.78837907
69.36728130,56.63507719,61.92045455
68.28023156,55.26822470,60.96033448
67.73713551,54.50664666,60.58790738
67.60441681,54.32890223,60.41166381
67.66638079,54.34412521,60.54395369
67.70497427,54.42581475,60.56689537
67.71816038,54.47159091,60.53805746
67.87221269,54.64686964,60.79138079
68.03044597,54.86685249,60.89622642
68.05038593,54.87714408,60.83876501
67.91027015,54.69414666,60.70229417
67.77497856,54.52519297,60.63132504
67.74839194,54.53870069,60.58908662
67.89472556,54.65051458,60.77594340
68.11331475,54.93771441,60.92570755
68.35034305,55.21440823,61.13936535
68.59015866,55.51533019,61.31271441
68.76511578,55.75203688,61.47587907
68.97716552,56.03376930,61.61202830
69.08136792,56.21816038,61.67592196
69.21194254,56.36803173,61.81164237
69.34219554,56.49099485,61.93932247
69.43867925,56.63164666,61.96569468
69.55392367,56.77840909,62.05092196
69.68364065,56.93771441,62.17270583
69.80006432,57.08308319,62.28419811
69.93106775,57.26468696,62.36996141
70.07643654,57.47009005,62.48681389
70.22459262,57.63561321,62.61738851
70.37671527,57.82933105,62.70454545
70.52444254,58.00192967,62.91873928
70.67088336,58.17281304,63.00471698
70.81635935,58.35173671,63.07772298
70.95861921,58.53923671,63.23198971
71.07836621,58.70808319,63.29063036
71.18471269,58.85602487,63.43235420
71.29459691,59.06153516,63.52980274
71.41938250,59.20368782,63.58361921
71.51254288,59.31228559,63.68364065
71.68031732,59.48777873,63.83340480
71.39033019,59.18278302,63.54320326
70.13700686,57.73027444,62.51801029
68.77572899,56.02722985,61.46140652
68.00192967,54.97427101,60.82804460
67.73563465,54.59648370,60.60806175
67.78001715,54.59348199,60.62735849
67.88411235,54.67999571,60.73531304
67.90566038,54.72298456,60.78516295
67.95486707,54.76661664,60.81314322
68.14033019,54.96494425,60.94972127
68.16144940,55.03366209,60.94811321
68.05124357,54.92281304,60.77787307
67.89601201,54.69146655,60.66209262
67.81282161,54.58554889,60.63529160
67.90308748,54.67131218,60.70883362
68.10270154,54.93589194,60.93289022
68.34884220,55.22791595,61.09669811
68.56786021,55.51554460,61.31250000
68.81410806,55.86170669,61.46033448
69.02144082,56.08704974,61.62156947
69.20143654,56.32364923,61.83865780
69.34626930,56.49506861,61.87242710
69.43867925,56.58040309,61.96869640
69.55649657,56.74989280,62.05370926
69.65716123,56.84648370,62.11385077
69.75075043,56.99260292,62.18578473
69.90062178,57.18471269,62.31914666
70.05810463,57.36878216,62.45540309
70.13100343,57.52594340,62.52165523
70.28484134,57.71065609,62.68364065
70.47984563,57.89558319,62.80810463
70.57975986,58.06389365,62.90544597
70.77304889,58.27990995,63.05628216
70.91605918,58.45400943,63.16134220
71.07568611,58.62650086,63.24892796
71.19478988,58.76768868,63.38496998
71.29256003,58.95315180,63.48831475
71.40319468,59.11460120,63.52990995
71.51211407,59.22695111,63.63454117
71.63261149,59.39376072,63.76597341
71.77369211,59.56185678,63.88496998
71.83672813,59.65298027,63.93085334
71.17484991,58.96515866,63.31250000
69.80124357,57.26543739,62.20283019
68.59852058,55.71280017,61.23231132
68.01061321,54.88882933,60.73810034
67.86213551,54.69446827,60.61363636
67.94425386,54.75128645,60.68953688
68.07675815,54.87671527,60.85227273
68.12339194,54.95293739,60.84423242
68.27390652,55.12639365,60.95979846
68.41713122,55.31271441,61.06593053
68.41959691,55.31239280,61.09669811
68.26297170,55.11245712,60.94757719
68.09048027,54.94639794,60.76479417
68.06925386,54.89879931,60.79416810
68.21044168,55.07493568,60.88518439
68.43599914,55.33522727,61.09616209
68.66680961,55.62478559,61.31989708
68.90769726,55.97030446,61.44157376
69.14343911,56.24506861,61.72062607
69.37221269,56.50964837,61.82504288
69.53484134,56.71129931,61.95057890
69.67967410,56.86363636,62.09155232
69.77519297,57.00117925,62.18535592
69.84873499,57.10623928,62.25975557
69.95347341,57.24421098,62.29738422
70.05456690,57.39033019,62.42806604
70.15394511,57.51029160,62.48542024
70.28987993,57.71269297,62.60463122
70.43846484,57.88250429,62.71590909
70.60752573,58.05392367,62.87896655
70.73434820,58.24035163,62.97212693
70.85881218,58.41820326,63.04148799
71.03012436,58.60709691,63.13968696
71.20840480,58.81153516,63.34584048
71.34198113,58.98842196,63.42495712
71.39611921,59.07965266,63.49539022
71.53173242,59.25986278,63.63036021
71.63153945,59.40212264,63.71537307
71.73584906,59.54909949,63.80167238
71.87071184,59.70411664,63.91273585
71.98885077,59.87714408,63.97662950
71.61138508,59.46172813,63.66820326
70.31807461,57.95851201,62.63389794
69.01436535,56.34476844,61.54716981
68.25364494,55.35398799,60.89429674
68.06271441,55.05821184,60.73638508
68.11867496,55.10087907,60.81464408
68.27572899,55.29159520,60.99699828
68.41477273,55.40641081,61.08801458
68.58790738,55.61149228,61.24699828
68.72952401,55.80906947,61.35259434
68.72673671,55.78891509,61.33887221
68.50696827,55.57407804,61.15641081
68.24635506,55.26114923,60.91316467
68.17002573,55.10591767,60.80553173
68.19350343,55.15791166,60.86545883
68.36910377,55.39719125,61.03955832
68.56378645,55.66455832,61.16948971
68.82343482,55.93106775,61.41605918
69.02819468,56.20679674,61.52583619
69.21537307,56.48038165,61.69629074
69.35859777,56.63153945,61.84530446
69.49807033,56.81603774,61.94103774
69.58083190,56.90823328,62.03966552
69.66638079,57.04588336,62.09948542
69.70004288,57.08126072,62.12864494
69.79105918,57.19972127,62.23466981
69.92999571,57.36481561,62.25804031
70.05992710,57.52519297,62.39225986
70.13389794,57.62789451,62.45765437
69.71966123,57.20207976,62.09573328
68.50964837,55.75021441,61.11835334
67.28859348,54.28644940,60.11771012
66.69478988,53.45636792,59.64418954
66.59723413,53.31721698,59.60323756
66.69768439,53.42152659,59.68246141
66.82257719,53.57515009,59.80199400
66.92195540,53.71548027,59.92581475
67.16123499,54.02422813,60.06003431
67.31185678,54.26597341,60.13947256
67.30853345,54.24849914,60.19018010
67.11921098,54.01179245,59.98306175
66.95057890,53.79942110,59.87296312
66.95122213,53.81185678,59.92227702
67.06132075,53.99614065,60.04245283
67.33051029,54.27476415,60.26683105
67.59423242,54.62167667,60.48509863
67.86503002,54.93642796,60.67935249
68.09133791,55.23027444,60.87864494
68.24228130,55.43953688,60.99699828
68.39772727,55.65587479,61.11234991
68.50943396,55.78130360,61.15308748
68.63797170,55.87703688,61.25589623
68.76618782,56.06914666,61.34294597
68.86320755,56.21162093,61.44704117
68.95733276,56.35570326,61.49271012
69.11470840,56.50171527,61.62607204
69.23788593,56.65619640,61.74367496
69.38518439,56.85645369,61.84680532
69.54963551,57.06250000,62.01511578
69.68396226,57.21676672,62.13357633
69.85581046,57.45615352,62.30606775
70.01725986,57.65340909,62.37617925
70.15255146,57.83008148,62.52197684
70.27401372,57.97319897,62.59862779
70.40919811,58.16134220,62.69950686
70.57118353,58.33340480,62.80831904
70.68717839,58.50192967,62.95647513
70.80617496,58.64322470,63.07032590
70.93996569,58.80638937,63.18932247
70.35130789,58.24839194,62.64654803
68.94243139,56.59337479,61.42892367
67.64140223,54.86803173,60.39869211
66.92302744,53.93889365,59.81882504
66.73166810,53.67570755,59.69307461
66.83801458,53.76854631,59.80671098
66.98874357,53.94822041,59.91691681
67.05917667,54.02465695,59.94982847
67.19178816,54.18750000,60.11824614
67.36417238,54.36974700,60.24817753
67.39515437,54.40051458,60.23349057
67.26018439,54.21087050,60.09894940
67.13175386,54.03505575,59.93428388
67.07815180,54.01640223,59.98209691
67.18760720,54.15437393,60.06839623
67.48231132,54.38261149,60.30692539
67.73081046,54.71966123,60.50139365
67.95733276,55.03773585,60.72298456
68.22823756,55.36331475,60.90726844
68.42763722,55.59809177,61.07729417
68.59144511,55.81485849,61.16713122
68.74163808,56.02036878,61.36320755
68.86653087,56.17935249,61.38068182
68.99399657,56.33319039,61.51908233
69.06067753,56.43953688,61.55360206
69.19371784,56.58651372,61.64976415
69.33683533,56.74249571,61.73542024
69.49549743,56.92881647,61.88336192
69.67420669,57.18685678,62.04663379
69.84294597,57.38111063,62.19478988
70.02926672,57.59937822,62.30049314
70.18106775,57.81314322,62.40212264
70.31014151,57.99753431,62.61417238
70.48134648,58.17452830,62.72512864
70.65083619,58.38561321,62.86031304
70.76886792,58.52830189,62.92710120
70.91734563,58.73466981,63.09037307
71.04663379,58.88368353,63.16670240
71.20454545,59.07611492,63.29073756
71.31721698,59.23745712,63.40319468
71.38132504,59.35688250,63.43321184
71.06442967,59.01790309,63.07836621
69.96087050,57.76039880,62.22952401
68.97287736,56.47545026,61.40362350
68.46333619,55.74528302,60.91102058
68.32386364,55.50096484,60.86867496
68.34423242,55.54599057,60.91605918
68.43074614,55.60977702,60.99614065
68.52101201,55.72405660,61.05510292
68.59605489,55.80488851,61.10763293
68.69532590,55.96355060,61.21826758
68.67913808,55.94543310,61.15662521
68.53709262,55.79180961,61.02787307
68.39429674,55.59198113,60.90072899
68.33876501,55.53580617,60.90608919
68.40619640,55.56014151,60.95186535
68.54416810,55.73349057,61.11771012
68.67463551,55.94457547,61.18213979
68.87371355,56.16616638,61.30638937
69.01972556,56.36513722,61.46119211
69.11363636,56.55060034,61.57482847
69.25300172,56.71076329,61.67988851
69.32150515,56.83672813,61.68942967
69.42442110,56.94457547,61.82622213
69.49796312,57.05521012,61.93599914
69.61449400,57.19554031,62.01372213
69.68021012,57.28998714,62.04298885
69.81453688,57.41337907,62.14794168
69.92431389,57.57525729,62.25536021
70.01918954,57.69586192,62.33029588
70.13797170,57.86224271,62.42334906
70.24260292,58.03677101,62.52197684
70.38336192,58.18481990,62.60398799
70.50471698,58.35141509,62.74635506
70.65898370,58.50225129,62.82686535
70.74185249,58.64365352,62.95711835
70.86824614,58.79513293,63.01490137
70.96044168,58.95508148,63.11953259
71.05713979,59.08865780,63.23681389
71.12950257,59.21162093,63.25300172
70.69564751,58.71408662,62.86460120
69.60388079,57.44050172,61.88561321
68.65330189,56.15780446,61.10484563
68.13818611,55.51661664,60.71408662
68.03827187,55.29041595,60.60881218
68.05628216,55.30842624,60.66284305
68.05628216,55.32322041,60.66691681
68.01125643,55.29984991,60.68921527
68.07493568,55.31914666,60.69693396
68.15469554,55.42420669,60.81786021
68.13218268,55.40555317,60.84980703
68.03280446,55.24742710,60.69468268
67.84433962,55.06260720,60.48391938
67.78130360,54.99356775,60.48799314
67.86878216,55.10827616,60.53687822
68.08726415,55.30896226,60.78966552
68.27304889,55.50246569,60.86931818
68.43074614,55.72877358,61.04202401
68.62800172,55.98584906,61.15394511
68.76747427,56.17099057,61.30478130
68.90255146,56.34680532,61.42334906
68.96698113,56.44210978,61.44318182
69.02047599,56.56786021,61.51597341
69.16948971,56.70036449,61.62810892
69.19018010,56.78537736,61.62928816
69.33061750,56.94103774,61.76822470
69.43653516,57.06410806,61.84562607
69.57311321,57.20711835,61.97920240
69.68138937,57.35891938,62.08812178
69.84648370,57.52422813,62.19554031
69.94961407,57.67731561,62.26929674
70.08436964,57.87467839,62.41005575
70.22148370,58.02294168,62.52615780
70.31968268,58.18246141,62.62135506
70.49024443,58.37532161,62.77433533
70.61567324,58.53612779,62.86117067
70.74013722,58.68138937,62.94639794
70.85259434,58.84187393,63.02497856
70.95143654,58.96644511,63.09809177
71.08286878,59.13025300,63.21601630
71.17667238,59.27615780,63.33533448
70.81367925,58.89858491,62.97319897
69.73520583,57.60570326,62.07118353
68.70390223,56.30145798,61.23777873
68.15158662,55.51779588,60.80188679
68.05456690,55.32257719,60.63003859
68.06914666,55.31378645,60.72973842
68.14097341,55.35966981,60.77733705
68.19757719,55.39075901,60.80778302
68.24517581,55.46022727,60.86138508
68.33790738,55.58233276,60.95883362
68.34433962,55.61084906,60.97191252
68.23595626,55.41777444,60.81099914
68.09830617,55.23595626,60.67420669
68.04770583,55.16241424,60.69007290
68.11245712,55.24839194,60.77883791
68.27540738,55.43707118,60.92978130
68.48863636,55.67495712,61.04781304
68.67795883,55.95368782,61.25085763
68.88164666,56.20626072,61.40373070
69.05542453,56.41262864,61.54170240
69.22159091,56.59423242,61.67313465
69.34316038,56.77562178,61.77197684
69.46837479,56.89290309,61.88046741
69.57868782,57.00578902,61.98542024
69.69007290,57.13346913,62.03291166
69.77390652,57.27154803,62.08887221
69.93053173,57.44704117,62.21633791
70.05810463,57.60891938,62.33554889
70.15716123,57.74614065,62.43010292
70.30017153,57.93331904,62.56603774
70.45658233,58.10066467,62.65383791
70.59423242,58.30992710,62.78076758
70.73188250,58.48981561,62.93707118
70.88239708,58.66734563,63.03183962
70.99206690,58.83683533,63.15866209
71.12081904,59.02926672,63.22030446
71.24828473,59.14751286,63.35698971
71.37628645,59.31453688,63.45175815
71.52444254,59.47362779,63.52036878
71.64376072,59.62467839,63.66520154
71.29824185,59.21419383,63.36771012
70.24013722,57.93417667,62.38765009
69.22255575,56.65844768,61.56174957
68.69361063,55.87864494,61.14301029
68.59766295,55.67913808,61.06250000
68.68053173,55.72491424,61.13507719
68.77101201,55.84176672,61.24163808
68.80735420,55.89376072,61.28484134
68.88582762,56.00761149,61.34037307
69.04470412,56.20036449,61.51297170
68.99228130,56.16809605,61.46698113
68.88357633,55.99013722,61.33018868
68.71548027,55.75128645,61.16359348
68.66337907,55.66788165,61.15265866
68.71183533,55.75407376,61.20433105
68.91970412,55.98745712,61.38389794
69.09358919,56.25182247,61.55735420
69.33093911,56.50589623,61.71944683
69.51254288,56.74217410,61.91048456
69.67592196,56.91305746,62.00353774
69.78827187,57.06571612,62.10280875
69.87371355,57.19146655,62.16316467
69.98670669,57.33876501,62.23927959
70.07257719,57.45443825,62.35216552
70.16691681,57.58265437,62.40319468
70.25857633,57.68503431,62.47684391
70.36588765,57.82193396,62.61438679
70.45433105,57.96848199,62.65480274
70.59541166,58.10162950,62.77830189
70.73145369,58.27883791,62.89976415
70.89815609,58.44232419,63.04159520
71.04738422,58.63507719,63.17259863
71.16327187,58.77733705,63.24217410
71.29974271,58.92988851,63.38228988
71.42002573,59.07461407,63.47598628
71.60034305,59.25621784,63.55231561
71.65351630,59.38743568,63.70433105
71.67527873,59.42120497,63.67849485
70.94843482,58.61974700,63.05456690
69.74078045,57.07568611,62.06646655
68.79020154,55.81614494,61.20915523
68.39429674,55.26179245,60.86749571
68.32986707,55.19178816,60.94650515
68.42667238,55.25600343,60.99699828
68.51575901,55.38689966,61.13454117
68.58243997,55.42484991,61.10709691
68.67645798,55.55681818,61.20175815
68.76854631,55.67056175,61.31657376
68.68203259,55.59862779,61.23756432
68.51618782,55.34830617,61.01618782
68.36856775,55.17538593,60.89644082
68.33233276,55.14772727,60.94060892
68.52594340,55.35956261,61.15994854
68.70368782,55.59198113,61.27958834
68.96526587,55.88464837,61.45711835
69.17753002,56.16509434,61.64922813
69.35999142,56.38057461,61.75664666
69.51597341,56.60066467,61.88625643
69.65898370,56.75010720,62.04127358
69.75996998,56.89569039,62.07943825
69.84948542,56.97941681,62.15694683
69.91798885,57.11610206,62.20593911
70.06303602,57.27937393,62.34669811
70.12156947,57.38872213,62.41831046
70.26029160,57.53709262,62.51972556
70.43503431,57.68181818,62.61749571
70.54288165,57.87328473,62.75900515
70.69618353,58.03516295,62.88957976
70.82064751,58.21944683,62.98895798
70.97469983,58.40759005,63.10420240
71.11138508,58.56657376,63.21430103
71.24110206,58.71623070,63.30606775
71.42452830,58.91981132,63.40308748
71.54159520,59.05467410,63.57568611
71.63529160,59.22126930,63.62692967
71.73949400,59.35763293,63.70454545
71.88186106,59.52658662,63.81582333
71.89343911,59.54245283,63.85720412
71.08672813,58.62210549,63.10816895
69.73263293,56.97019726,61.99678388
68.71280017,55.65919811,61.25761149
68.32643654,55.07643654,60.83436964
68.28451973,54.97062607,60.86320755
68.35162950,55.06239280,60.95047170
68.43964408,55.13153945,61.01704545
68.47866638,55.15984134,61.06978988
68.59787736,55.32236278,61.13861492
68.68985849,55.45358062,61.15769726
68.65876930,55.42077616,61.14290309
68.48188250,55.18342624,61.03141081
68.34798456,55.00557461,60.88186106
68.33254717,54.98563465,60.90287307
68.46966123,55.10066467,60.99217410
68.62328473,55.35784734,61.17838765
68.84894940,55.65319468,61.30906947
69.08479846,55.94200257,61.53205403
69.26286449,56.17903087,61.72491424
69.43910806,56.40308748,61.82568611
69.57375643,56.54716981,61.93910806
69.70894082,56.75696827,61.99731990
69.77422813,56.82611492,62.07246998
69.87521441,56.95947684,62.15072899
69.99313894,57.09369640,62.26650943
70.07847341,57.21955403,62.33254717
70.18792882,57.36781732,62.39912093
70.29459691,57.52358491,62.52079760
70.47555746,57.70947684,62.65051458
70.59316038,57.87274871,62.74367496
70.73274014,58.05842624,62.92356346
70.86395798,58.21494425,62.99753431
71.03762864,58.41713122,63.16005575
71.16648799,58.58651372,63.19993568
71.28891509,58.73209691,63.34444683
71.41252144,58.89751286,63.48885077
71.53098199,59.05392367,63.53098199
71.63807890,59.19361063,63.60313036
71.76350772,59.35784734,63.73692110
71.64644082,59.25921955,63.60827616
70.60698971,58.08919383,62.80467410
69.40437393,56.50664666,61.78430532
68.56603774,55.38121784,61.09262436
68.27937393,54.99056604,60.81796741
68.32590051,54.99421098,60.88121784
68.42817324,55.15351630,60.97126930
68.56057033,55.30135077,61.07686535
68.64033019,55.40276587,61.22459262
68.77208405,55.59755575,61.33576329
68.81818182,55.63829331,61.38786449
68.74796312,55.51575901,61.25332333
68.52926672,55.28805746,61.04041595
68.42324185,55.11106346,60.97191252
68.45926244,55.13271870,61.02144082
68.63261149,55.33351201,61.20872642
68.77915952,55.56753859,61.30081475
69.03977273,55.86974700,61.47845197
69.21419383,56.12971698,61.61149228
69.41166381,56.34648370,61.81496569
69.49249571,56.54909949,61.87821612
69.65533877,56.74217410,61.97159091
69.75996998,56.88818611,62.10173671
69.85313036,56.98992281,62.17088336
69.97244854,57.10538165,62.29427530
70.05338765,57.21140652,62.27701544
70.17195540,57.34969983,62.41552316
70.23145369,57.49989280,62.55778302
70.33855060,57.65008576,62.54824185
70.47212693,57.78837907,62.67560034
70.64547599,57.95572470,62.80906947
70.78398370,58.12360635,62.92506432
70.86771012,58.32246998,62.96826758
71.03237564,58.49614065,63.14065180
71.12274871,58.64376072,63.23509863
71.25268010,58.80842624,63.32193396
71.38175386,58.97780875,63.45122213
71.48574185,59.09294597,63.54513293
71.08833619,58.66209262,63.15716123
69.89376072,57.20808319,62.16734563
68.68364065,55.73038165,61.18599914
68.07793739,54.84251715,60.62682247
67.90887650,54.60999142,60.53066038
67.96376501,54.67109777,60.60891938
68.10902659,54.85559605,60.74624786
68.21065609,54.98145369,60.90919811
68.34937822,55.18685678,60.99860635
68.52165523,55.36299314,61.13228988
68.49764151,55.33190395,61.10012864
68.33619211,55.13979417,60.91445111
68.07268439,54.89429674,60.67881647
68.03066038,54.77186964,60.64837050
68.13561321,54.88582762,60.77454974
68.30981990,55.06560892,60.96762436
68.55263722,55.39118782,61.13196827
68.75782590,55.67249142,61.27712264
68.97062607,55.95969125,61.43524871
69.12789451,56.14611921,61.56078473
69.25932676,56.32557890,61.72309177
69.34551887,56.46794597,61.79041595
69.42506432,56.58286878,61.87810892
69.52551458,56.72212693,61.89451115
69.64622642,56.83919383,62.01093482
69.72416381,57.00782590,61.99967839
69.81250000,57.08265437,62.14633362
69.42270583,56.65941252,61.82171955
68.32847341,55.31046312,60.83962264
67.26725986,53.99667667,60.06078473
66.78612779,53.31357204,59.65383791
66.70390223,53.24871355,59.59455403
66.89183105,53.40169383,59.81593053
67.04170240,53.62789451,59.94200257
67.20733276,53.79695540,60.02530017
67.45743997,54.10323756,60.26897513
67.57654374,54.35463122,60.35313036
67.55831904,54.28687822,60.34133791
67.34433962,54.01843911,60.19103774
67.19661235,53.82697256,60.04802744
67.22705832,53.87757290,60.04781304
67.39011578,54.07707976,60.20186535
67.65298027,54.33908662,60.44629074
67.88529160,54.64922813,60.64815609
68.11385077,55.00192967,60.75493139
68.33136792,55.25804031,60.97587907
68.50578902,55.51093482,61.07118353
68.65866209,55.69382504,61.19682676
68.74271012,55.81367925,61.32246998
68.90683962,56.00289451,61.31786021
68.99614065,56.10827616,61.49335334
69.10934820,56.25235849,61.58276158
69.23638508,56.42292024,61.67613636
69.34841338,56.58061750,61.75536021
69.50203688,56.74024443,61.88947256
69.62778731,56.89987136,62.00493139
69.74442539,57.09777015,62.05338765
69.92195540,57.28966552,62.24592624
70.08951544,57.49431818,62.33394082
70.24903516,57.69028731,62.49088765
70.39912093,57.86953259,62.61781732
70.52808748,58.04952830,62.74914237
70.62757290,58.20175815,62.81925386
70.78216123,58.36363636,62.93825043
70.94339623,58.53537736,63.06046312
70.88979417,58.52658662,63.03816467
69.87135506,57.33876501,62.12457118
68.37853774,55.54406089,60.90062178
67.39075901,54.21858919,60.10473842
67.01565180,53.71676672,59.81710978
67.07772298,53.71987564,59.91948971
67.22834477,53.91809605,60.07182676
67.33962264,54.13186106,60.13657804
67.46001286,54.25589623,60.20851201
67.65823328,54.48713551,60.29995712
67.71119211,54.55874786,60.33812178
67.61159949,54.46258576,60.39397513
67.43567753,54.25192967,60.12778731
67.34069468,54.07654374,60.09476844
67.42356346,54.13904374,60.11996141
67.62510720,54.38904374,60.35366638
67.84273156,54.68792882,60.50782590
68.14461835,55.03569897,60.75525300
68.40448113,55.34316038,60.99839194
68.61953259,55.63304031,61.09509005
68.78730703,55.86106346,61.27144082
68.95518868,56.06753859,61.42088336
69.06207118,56.24882075,61.43021012
69.20347341,56.37757290,61.59712693
69.30596055,56.51329331,61.69125214
69.45990566,56.69361063,61.81496569
69.58147513,56.85398799,61.89922813
69.71751715,57.03334048,62.01683105
69.87124786,57.20272298,62.11567324
70.05713979,57.41305746,62.27412093
70.20765437,57.61181389,62.46687393
70.36974700,57.83008148,62.55413808
70.53066038,58.04223842,62.70175815
70.73209691,58.25568182,62.78291166
70.87156947,58.42431389,62.95090051
71.00975557,58.57150515,63.06121355
71.19521870,58.79298885,63.23038165
71.30338765,58.95004288,63.31796741
71.40587479,59.10999142,63.40201544
71.54695540,59.31603774,63.50578902
71.31367925,59.05381647,63.26693825
70.28473413,57.84348199,62.41230703
69.18299743,56.48166810,61.49796312
68.56014151,55.61588765,60.94864923
68.35688250,55.32343482,60.82707976
68.42688679,55.36385077,60.86771012
68.50117925,55.48638508,60.93664237
68.57611492,55.55360206,60.99120926
68.65169383,55.66305746,61.06593053
68.77948113,55.82472127,61.17592196
68.82397084,55.87864494,61.18460549
68.71912521,55.78409091,61.09862779
68.61835334,55.58061750,60.99571184
68.51565180,55.50214408,60.93010292
68.55692539,55.55542453,60.94414666
68.75385935,55.78837907,61.09734134
68.93267581,56.04909949,61.31903945
69.14225986,56.31571612,61.51683105
69.31357204,56.54963551,61.65147942
69.48960120,56.75032161,61.77369211
69.64033019,56.92377787,61.91327187
69.74378216,57.10377358,61.97105489
69.85141509,57.22255575,62.04631218
69.96590909,57.36963979,62.15072899
70.06292882,57.50911235,62.23359777
70.18439108,57.65351630,62.37564322
70.31721698,57.79406089,62.40876930
70.41831046,57.96076329,62.54695540
70.49003002,58.10237993,62.59701973
70.64086621,58.26522298,62.69789880
70.76082762,58.38775729,62.81828902
70.88475557,58.57665094,62.86524443
71.04974271,58.75900515,63.03516295
71.14183105,58.92270583,63.10002144
71.29502573,59.08640652,63.23713551
71.40244425,59.26586621,63.33340480
71.50728988,59.41359348,63.41080617
71.61310034,59.56550172,63.54041595
71.73263293,59.73156089,63.64922813
71.86481561,59.88239708,63.72930961
71.88239708,59.93921527,63.75503859
71.27948113,59.27197684,63.21558748
70.21269297,57.99914237,62.30853345
69.42420669,56.93449828,61.58865780
68.99335334,56.40673242,61.35420240
68.96290738,56.33919383,61.28237564
68.98820755,56.35355918,61.31496569
69.03419811,56.39847770,61.40705403
69.03141081,56.40919811,61.35302316
69.07772298,56.45358062,61.42099057
69.11921098,56.52036878,61.45754717
69.06024871,56.45004288,61.43653516
68.90780446,56.26179245,61.24721269
68.74882075,56.08887221,61.17120497
68.73306175,56.07847341,61.15287307
68.80038593,56.14858491,61.18846484
68.95518868,56.33211835,61.37264151
69.11813894,56.51650943,61.50278731
69.23456261,56.71505146,61.62928816
69.40448113,56.89225986,61.73767153
69.51747427,57.03462693,61.81828902
69.59090909,57.16487993,61.91252144
69.67131218,57.26672384,61.96891081
69.77562178,57.39633362,62.05756861
69.84498285,57.48820755,62.10034305
69.93353345,57.61192110,62.20518868
70.03001715,57.71054889,62.27122642
70.11942539,57.87049743,62.34155232
70.19307461,57.97609348,62.40705403
70.34423242,58.13925815,62.51554460
70.43396226,58.28945111,62.63443396
70.54481132,58.43589194,62.74742710
70.65426672,58.60023585,62.87532161
70.78902230,58.74549743,62.93867925
70.91520154,58.90062178,63.02948113
71.00943396,59.05917667,63.04245283
71.12446398,59.19093053,63.16991852
71.22341338,59.32740137,63.27937393
71.32364923,59.47952401,63.39118782
71.38411235,59.59637650,63.44650515
71.52915952,59.75621784,63.55317324
71.62950257,59.88722127,63.60656089
71.30671098,59.57021870,63.28762864
70.30585334,58.34123070,62.44650515
69.24528302,57.01543739,61.55853345
68.68267581,56.22191252,61.12735849
68.52358491,55.96076329,61.00921955
68.52851630,55.93096055,61.01608062
68.55027873,55.92613636,61.04963551
68.55649657,55.93878645,61.05585334
68.58930103,55.98209691,61.07965266
68.66455832,56.05220840,61.16069897
68.63647084,56.03977273,61.13261149
68.49667667,55.85259434,60.96258576
68.31346484,55.62714408,60.81432247
68.22705832,55.52915952,60.74785592
68.27883791,55.54706261,60.81035592
68.45561750,55.74549743,60.98241852
68.63840051,55.95143654,61.13904374
68.75653945,56.11953259,61.23381218
68.95701115,56.34466123,61.40512436
69.04952830,56.49378216,61.47019726
69.16530875,56.66702401,61.56432247
69.24185249,56.78066038,61.60849057
69.38314751,56.93417667,61.78301887
69.45840480,57.03752144,61.79073756
69.56292882,57.14140223,61.85538165
69.60763293,57.21483705,61.88014580
69.71558748,57.34466123,62.04513293
69.86910377,57.52476415,62.19457547
69.97534305,57.66573756,62.20604631
70.09101630,57.81442967,62.33008148
70.20475986,58.00278731,62.44939966
70.33822899,58.15512436,62.54341767
70.47587907,58.28934391,62.70636792
70.58115352,58.47759434,62.77883791
70.71676672,58.64408233,62.89686964
70.84133791,58.78066038,62.96355060
70.95743997,58.97030446,63.11052744
71.07171955,59.09358919,63.14997856
71.18267581,59.20004288,63.23177530
71.33211835,59.38293310,63.37500000
