R,G,B
63.42860206,73.97362779,63.13464837
63.68578473,73.98166810,63.19414666
63.61760292,74.07429245,63.43106775
63.74281732,74.18664237,63.64569039
63.66895369,74.26586621,63.55681818
63.65405232,74.40212264,63.36331475
63.63250429,74.26993997,63.32825901
63.21172813,73.91713122,63.03462693
62.98649228,73.64772727,62.86299314
62.94950686,73.50546741,62.83158233
62.95079331,73.46644511,62.86181389
62.94468268,73.45025729,62.85849057
62.93031732,73.43503431,62.81539451
62.99764151,73.43460549,62.88314751
63.05070755,73.47973842,62.89676244
63.07375643,73.50128645,62.88550600
63.07225557,73.50943396,62.88550600
63.09819897,73.51415094,62.90308748
63.14183105,73.55156518,62.93042453
63.16723842,73.58083190,62.98306175
63.20143654,73.64397513,62.98810034
63.21933962,73.69554031,63.03087479
63.23917238,73.76940395,63.04684820
63.29159520,73.81582333,63.08469125
63.33608491,73.88153945,63.17141938
63.36878216,73.94382504,63.16209262
63.38003859,74.02519297,63.13689966
63.43599914,74.10216552,63.19864923
63.53076758,74.22244854,63.30521012
63.54931389,74.30231561,63.37435678
63.57043310,74.36374357,63.33608491
63.15040738,73.91284305,62.86031304
63.17152659,73.98027444,62.81882504
63.20583190,74.03173242,62.85741852
63.24678388,74.13464837,62.90394511
63.10527444,74.02873070,62.83469125
62.72319897,73.63379074,62.47448542
62.43406947,73.26147084,62.32386364
62.36974700,73.11159949,62.17742281
62.39140223,73.01125643,62.17570755
62.36492281,72.92345626,62.10248714
62.37939537,72.87553602,62.12274871
62.41284305,72.84423242,62.13518439
62.43492710,72.86524443,62.15190823
62.48252573,72.87960978,62.18406947
62.46912521,72.87993139,62.15780446
62.45186535,72.85645369,62.14633362
62.48231132,72.86824614,62.15834048
62.50428816,72.90180103,62.18310463
62.55370926,72.96923242,62.23016724
62.60956261,73.06646655,62.26693825
62.64633362,73.10966981,62.29620497
62.66520154,73.16948971,62.34208834
62.73113208,73.26265009,62.40351630
62.76490137,73.32900943,62.42506432
62.81978988,73.38582762,62.40598199
62.83919383,73.44210978,62.45132933
62.87682247,73.49110206,62.50332333
62.88700686,73.56753859,62.55124357
62.93374786,73.63829331,62.61556604
63.00010720,73.73102487,62.59251715
63.03323328,73.82654374,62.68310463
63.05767581,73.92538593,62.65394511
63.09626930,73.99656947,62.74485420
63.10484563,74.01479417,62.76736707
62.82429245,73.78677101,62.52326329
62.40458834,73.30510292,62.18246141
62.18964408,72.98402659,61.94543310
62.20358062,72.83051029,61.91563036
62.19725557,72.79138079,61.91638079
62.20304460,72.71204974,61.93181818
62.19671955,72.67635077,61.91048456
62.26779588,72.70690395,61.94318182
62.30467410,72.74099485,61.97212693
62.30017153,72.74120926,61.94961407
62.29920669,72.71387221,61.93599914
62.30017153,72.69897084,61.94704117
62.30756861,72.72073328,61.94286021
62.33501286,72.74967839,61.98338336
62.38046741,72.79984991,62.01275729
62.42377787,72.84573328,62.06228559
62.46987564,72.90448113,62.13003859
62.48895798,72.97437822,62.13368353
62.53366209,73.03837907,62.16123499
62.56646655,73.10205832,62.20969125
62.61063465,73.18353345,62.25192967
62.63271870,73.23027444,62.30445969
62.69050172,73.29877787,62.36138508
62.72009005,73.38261149,62.36224271
62.76811750,73.46880360,62.42999571
62.80403087,73.51929674,62.49978559
62.82793739,73.62575043,62.51189966
62.76629503,73.60570326,62.43760720
62.35666810,73.20272298,62.21044168
62.08351201,72.79706261,61.85538165
61.91756003,72.49474700,61.72394940
61.90490995,72.39783448,61.66605918
61.92313465,72.35366638,61.67913808
61.95475986,72.33083190,61.70390223
61.98156089,72.30081475,61.66359348
62.00578902,72.33554889,61.71998285
62.04974271,72.35698971,61.77530017
62.02733705,72.35259434,61.74388937
61.98059605,72.32171955,61.69050172
61.98059605,72.30756861,61.72030446
62.00385935,72.32161235,61.68096055
62.08790738,72.39558319,61.78644940
62.15051458,72.47641509,61.83554889
62.17420669,72.54984991,61.90405232
62.24924957,72.64912093,61.92206261
62.25589623,72.69178816,61.97051887
62.27358491,72.73842196,61.94789880
62.30756861,72.79470412,61.97287736
62.31539451,72.85162950,62.02701544
62.38068182,72.92677959,62.07579331
62.42592196,73.02433533,62.16756003
62.50793310,73.12778731,62.15008576
62.59466123,73.27047599,62.29170240
62.65726844,73.34980703,62.34208834
62.71558748,73.45143654,62.41177101
62.58265437,73.40405232,62.29663379
62.12028302,72.93953688,61.89858491
61.72405660,72.42731561,61.58383362
61.58844340,72.12703688,61.43021012
61.53977273,71.95829760,61.35345197
61.55542453,71.89140223,61.35237993
61.54438250,71.81260720,61.32332762
61.55381647,71.76993997,61.30403087
61.57911664,71.80553173,61.34262436
61.61835334,71.80317324,61.37328473
61.62575043,71.80328045,61.37146226
61.60806175,71.78580617,61.34841338
61.61588765,71.78355489,61.35881218
61.67056175,71.80478130,61.36374357
61.72009005,71.87253431,61.40662521
61.78119640,71.95722556,61.49817753
61.84466123,72.03527015,61.54448971
61.89933533,72.10195111,61.60516724
61.91134220,72.15255146,61.60473842
61.95679674,72.22051887,61.61846055
62.02765866,72.31475129,61.72855918
62.07783019,72.44232419,61.78666381
62.10452401,72.49153087,61.81035592
62.17184820,72.58972985,61.89633362
62.19264580,72.66906089,61.91262864
62.26211407,72.77240566,61.93835763
62.34852058,72.89954974,61.99260292
62.40426672,72.96708834,62.06250000
62.40094340,73.06560892,62.09841338
62.20690395,72.85398799,61.93331904
61.67956690,72.35945540,61.51511578
61.36878216,71.82954545,61.23992281
61.25117925,71.57750858,61.06142796
61.23938679,71.46430103,61.01168525
61.21430103,71.32600772,61.02669383
61.15105060,71.20315180,60.93878645
61.18331904,71.19018010,60.99678388
61.22223413,71.22373499,61.00589623
61.26404374,71.23874357,61.05092196
61.27219125,71.23724271,61.05027873
61.26918954,71.21644511,61.01254288
61.26007719,71.23156089,61.03494854
61.31024871,71.24828473,61.05596055
61.35484563,71.30210120,61.08361921
61.40984134,71.41370069,61.16112779
61.44071612,71.49324614,61.16370069
61.50085763,71.55295883,61.26372213
61.61063465,71.69425386,61.36771012
61.63925815,71.75611063,61.35581046
61.67088336,71.84605489,61.37028302
61.70668954,71.94682676,61.38679245
61.81453688,72.08769297,61.53323328
61.86363636,72.16016295,61.57439966
61.93213979,72.24496141,61.67206261
61.97855918,72.35913379,61.71419383
62.05456690,72.44693396,61.77969554
62.12242710,72.57118353,61.82590051
62.15137221,72.65437393,61.91123499
61.89397513,72.45701115,61.66391509
61.39504717,71.89654803,61.22630789
61.10034305,71.43653516,61.01007719
61.02840909,71.21730274,60.89611921
61.01693825,71.09648370,60.81260720
60.98970840,71.03902230,60.81496569
61.01329331,70.98091767,60.83040309
61.05102916,71.00085763,60.86363636
61.08083190,71.03473413,60.88593482
61.07225557,70.98863636,60.84884220
61.08061750,70.97105489,60.89922813
61.07193396,70.96751715,60.89804889
61.10602487,70.99153087,60.88175386
61.16305746,71.05135077,60.95465266
61.17795883,71.11663808,60.95132933
61.24774871,71.18364065,60.97416381
61.31014151,71.25439537,61.02883791
61.37199828,71.35570326,61.06989708
61.43171098,71.43321184,61.14183105
61.49163808,71.51736707,61.23756432
61.51082762,71.59659091,61.30370926
61.56625214,71.68674957,61.33619211
61.64033019,71.79984991,61.33587050
61.72180532,71.91262864,61.47244854
61.76779588,72.00085763,61.51457976
61.85077187,72.11149228,61.59240995
61.80992710,72.14376072,61.52862350
61.38325472,71.73402659,61.15298027
60.93867925,71.18589194,60.85934820
60.76254288,70.82407804,60.63068182
60.67720840,70.59316038,60.59680532
60.67152659,70.53516295,60.58683533
60.70207976,70.47995283,60.54684820
60.70422384,70.46537307,60.55220840
60.75139365,70.49517581,60.55413808
60.80027873,70.53183962,60.57879503
60.80939108,70.51801029,60.57632933
60.79363208,70.46837479,60.63689966
60.82354202,70.49035163,60.63293310
60.86245712,70.52111921,60.64225986
60.92270583,70.61267153,60.72287736
60.96194254,70.66863208,60.76876072
61.05960549,70.80831904,60.80724700
61.14376072,70.91948971,60.87231990
61.16037736,70.99313894,60.97427101
61.22330617,71.10087907,60.97566467
61.24442539,71.17881647,61.00000000
61.31014151,71.28248285,61.07193396
61.36513722,71.37778731,61.13143225
61.39997856,71.44200257,61.17034734
61.46472985,71.54406089,61.26082762
61.54373928,71.65523156,61.29095197
61.64558319,71.81710978,61.39922813
61.65405232,71.85109348,61.35795455
61.38689966,71.62317753,61.13732847
60.84133791,71.03280446,60.77186964
60.49153087,70.48016724,60.44607633
60.35827616,70.10677530,60.24978559
60.36299314,69.93417667,60.20454545
60.30692539,69.77326329,60.10130789
60.29406089,69.65834048,60.11031304
60.31700257,69.62575043,60.15748285
60.34026587,69.65373070,60.16080617
60.35784734,69.66123499,60.14472556
60.35795455,69.62231990,60.17184820
60.34230274,69.59916381,60.14676244
60.34777015,69.60548885,60.17045455
60.41520154,69.65340909,60.15662521
60.46837479,69.73295455,60.21558748
60.54524014,69.80488851,60.30488851
60.58640652,69.91359348,60.32761578
60.63915094,70.00428816,60.41102058
60.72641509,70.12049743,60.50471698
60.79641938,70.24088765,60.57472127
60.85709691,70.30392367,60.59316038
60.92828045,70.44071612,60.67463551
60.96119211,70.52572899,60.65051458
61.02583619,70.63754288,60.76490137
61.09980703,70.74860635,60.78569897
61.18835763,70.86417238,60.91412950
61.21976844,70.96826758,60.98391938
61.21022727,71.01189966,60.88754288
60.79641938,70.65726844,60.61417238
60.30467410,70.03130360,60.20883362
60.07150515,69.50246569,59.88818611
59.99539022,69.23381218,59.86588765
59.96387221,69.06014151,59.76340051
59.96151372,68.97695111,59.75439537
59.95626072,68.87735849,59.72598628
59.96537307,68.89225986,59.77111921
59.99356775,68.90115780,59.77337050
60.00321612,68.88421955,59.79974271
60.00428816,68.85141509,59.81775300
60.00889794,68.84701973,59.83286878
60.05746141,68.88743568,59.80488851
60.08533448,68.90308748,59.86813894
60.14837050,69.01758148,59.91466552
60.22137650,69.08158233,59.96237136
60.26061321,69.22244854,59.97952401
60.33672813,69.29256003,60.03569897
60.37950257,69.37264151,60.10720412
60.41048456,69.50160806,60.19286021
60.48070326,69.58640652,60.21998285
60.53934391,69.69200257,60.29770583
60.60313036,69.79716981,60.31453688
60.64247427,69.84830617,60.31571612
60.74195969,69.97716552,60.45722556
60.77047599,70.07214837,60.51554460
60.78537736,70.10398799,60.48156089
60.43181818,69.79995712,60.18460549
59.94789880,69.14086621,59.84498285
59.68964408,68.66262864,59.52262007
59.56550172,68.35195111,59.38754288
59.58029588,68.23509863,59.42527873
59.56142796,68.10581046,59.32171955
59.59037307,68.05413808,59.33608491
59.60237993,68.04920669,59.34701973
59.60559605,68.02219125,59.36953259
59.57911664,67.98949400,59.31625214
59.52948113,67.87553602,59.24839194
59.51650943,67.85227273,59.28001715
59.53419811,67.87467839,59.27798027
59.58254717,67.93031732,59.29009434
59.62307033,67.98820755,59.36149228
59.66402230,68.04674099,59.37071184
59.71194254,68.10259434,59.46966123
59.74185249,68.17645798,59.46419383
59.79073756,68.26157804,59.54695540
59.84283877,68.31582333,59.49807033
59.88068182,68.37746569,59.61310034
59.93975129,68.51436535,59.69746998
59.98949400,68.55017153,59.66252144
59.98038165,68.67506432,59.71730274
59.90212264,68.55306604,59.67570755
59.46526587,67.97512864,59.28602058
59.06903945,67.33490566,58.87821612
58.87382075,66.91412950,58.61888937
58.81850343,66.70122213,58.57021870
58.78205403,66.57021870,58.48831475
58.76415094,66.43289022,58.43396226
58.78827187,66.41734563,58.46987564
58.80724700,66.44425386,58.50986278
58.79974271,66.45776158,58.50557461
58.79931389,66.43160377,58.50343053
58.77358491,66.41402230,58.51865352
58.82268439,66.43481990,58.52294168
58.87928816,66.53666381,58.53494854
58.93138937,66.57954545,58.64322470
59.02422813,66.72405660,58.73263293
59.05177959,66.80778302,58.72030446
59.14429674,66.94296741,58.84412521
59.17945969,67.03173242,58.89043739
59.26104202,67.10966981,58.95851201
59.28301887,67.22448542,59.00557461
59.36224271,67.33629931,59.06142796
59.41938250,67.41916810,59.13100343
59.50128645,67.54159520,59.21355060
59.58930103,67.65984134,59.26918954
59.51543739,67.58490566,59.17195540
59.06475129,67.10741852,58.81110635
58.61931818,66.42978130,58.37296312
58.43578473,65.94864923,58.10216552
58.39290309,65.67592196,58.01876072
58.27744425,65.43224700,57.92002573
58.22212693,65.29352487,57.79952830
58.18814322,65.22823756,57.81528731
58.28419811,65.28269726,57.87532161
58.31453688,65.33340480,57.92667238
58.29963551,65.38389794,57.92892367
58.31207118,65.39011578,57.95786878
58.38518439,65.42720840,57.99667667
58.47609348,65.56442967,58.07257719
58.54427530,65.62960978,58.14376072
58.61588765,65.77540738,58.22630789
58.70004288,65.92774443,58.31839623
58.76093482,66.05488851,58.38250429
58.77401372,66.17688679,58.42345626
58.90265866,66.35012864,58.51522298
58.94714837,66.48295455,58.61095626
59.04341767,66.65298027,58.66756003
59.13968696,66.80306604,58.78762864
59.23413379,66.93481990,58.90994854
59.26490137,67.10924099,59.00246569
59.43707118,67.25739708,59.07943825
59.33758576,67.24410377,59.00482419
58.93578473,66.76683105,58.62575043
58.51865352,66.10120069,58.21805317
58.36631647,65.65040738,57.97244854
58.28698542,65.44757719,57.89804889
58.25021441,65.30681818,57.82611492
58.21076329,65.20347341,57.76951115
58.21601630,65.17527873,57.82686535
58.29674099,65.27937393,57.91402230
58.35184391,65.35463122,57.93117496
58.32054031,65.39322470,57.91809605
58.36620926,65.42238422,57.95797599
58.40233705,65.48552744,57.98617067
58.51168525,65.61267153,58.07257719
58.55574614,65.72641509,58.15394511
58.60934820,65.86642367,58.22898799
58.72480703,66.01683105,58.34444683
58.79127358,66.17334906,58.42828045
58.83340480,66.29888508,58.49463979
58.90898370,66.41198542,58.51683105
58.97448542,66.58190395,58.59969983
59.04438250,66.69575472,58.66702401
59.11974700,66.83158233,58.82021870
59.20990566,67.00493139,58.89815609
59.31378645,67.14783448,58.98617067
59.40737564,67.28259005,59.04180961
59.35666810,67.32772298,59.06035592
58.99560463,66.95851201,58.71751715
58.61996141,66.42334906,58.39033019
58.49785592,66.04952830,58.21312178
58.45132933,65.86985420,58.14322470
58.43063894,65.85666810,58.14033019
58.41112779,65.82279160,58.11074185
58.46376501,65.84819897,58.18524871
58.54406089,65.93492710,58.23895798
58.55821184,66.03012436,58.23724271
58.52669383,66.06485849,58.20165094
58.56239280,66.08704974,58.26479417
58.63840051,66.18814322,58.31721698
58.71226415,66.32075472,58.44039451
58.78687822,66.45518868,58.49335334
58.84852058,66.64354631,58.51082762
58.94596913,66.76865352,58.63357633
59.05124357,66.94232419,58.71247856
59.09048027,67.08512007,58.80703259
59.17420669,67.24496141,58.86803173
59.30692539,67.36374357,59.05392367
59.37135506,67.48670669,59.07096913
59.44725557,67.65801887,59.19318182
59.53269726,67.80756861,59.26189966
59.62875214,67.95979846,59.29856346
59.62746569,68.07300600,59.37960978
59.35237993,67.81378645,59.17120497
59.00707547,67.38636364,58.80703259
58.81217839,67.07654374,58.63936535
58.77401372,66.93953688,58.63936535
58.78441252,66.90169383,58.60688250
58.75428816,66.82054031,58.60398799
58.78098199,66.85109348,58.60473842
58.88539880,66.98895798,58.71515866
58.90458834,67.02937393,58.68825043
58.95047170,67.07804460,58.76286449
58.93782161,67.14279588,58.74356775
58.96590909,67.19403945,58.78216123
59.02026158,67.26404374,58.85023585
59.15062178,67.45593911,58.96537307
59.20797599,67.54524014,58.99506861
59.27562178,67.71451544,59.09809177
59.39965695,67.89343911,59.24614065
59.45090051,67.98563465,59.24463979
59.53816467,68.16788165,59.40180103
59.59712693,68.27122642,59.40780446
59.65030017,68.42581475,59.43074614
59.72963122,68.56518010,59.59691252
59.81239280,68.73584906,59.66144940
59.89826329,68.84444683,59.71108491
59.97780875,69.02197684,59.82986707
60.10570326,69.19832762,59.88657804
60.11170669,69.28902230,59.94253859
59.87092624,69.10441681,59.74635506
59.46955403,68.66595197,59.40287307
59.25418096,68.33780017,59.24388937
59.21387221,68.20015009,59.16991852
59.16423671,68.10634648,59.13529160
59.13786449,68.03945111,59.10999142
59.12360635,68.02669383,59.10816895
59.16155660,68.04170240,59.17677959
59.24313894,68.11792453,59.25042882
59.25643225,68.16337907,59.21076329
59.28473413,68.20175815,59.22512864
59.29942110,68.24860635,59.29191681
59.35302316,68.30756861,59.31164237
59.41756003,68.42785163,59.33801458
59.47920240,68.53280446,59.41852487
59.56861063,68.65373070,59.53516295
59.62617925,68.75653945,59.58608491
59.72770154,68.91080617,59.67431389
59.78473413,69.03473413,59.76715266
59.85280875,69.14247427,59.76876072
59.90480274,69.25257290,59.88336192
60.01329331,69.41380789,59.97019726
60.07740137,69.52873070,60.02830189
60.15587479,69.66959691,60.09305317
60.18932247,69.81968268,60.19018010
60.29888508,69.94382504,60.23499142
60.35559605,70.07021870,60.22244854
60.45465266,70.20636792,60.34015866
60.42913808,70.23595626,60.38539880
60.06207118,69.93857204,60.10195111
59.69060892,69.51179245,59.77722985
59.54781304,69.26329331,59.61535163
59.52165523,69.14386792,59.61449400
59.52862350,69.05177959,59.53398370
59.55435249,68.98960120,59.55713979
59.52862350,68.97180532,59.58415523
59.58501286,69.00246569,59.60838336
59.63078902,69.10248714,59.61985420
59.64011578,69.09616209,59.66584477
59.66788165,69.08812178,59.70861921
59.66295026,69.08855060,59.71462264
59.72512864,69.19511149,59.71397942
59.80617496,69.32311321,59.84969983
59.86267153,69.42270583,59.88239708
59.93353345,69.54223842,59.96162093
60.02283448,69.62081904,59.97437822
60.12682247,69.76683105,60.15619640
60.13614923,69.85806175,60.16788165
60.21762436,69.95990566,60.22341338
60.21869640,70.02873070,60.22577187
60.31775300,70.17131218,60.36835334
60.39301029,70.29138079,60.41273585
60.43203259,70.34969983,60.42881647
60.55381647,70.52937393,60.46483705
60.59380360,70.60087907,60.60023585
60.66273585,70.75986278,60.57611492
60.75353774,70.85623928,60.70936964
60.67002573,70.80060034,60.60248714
60.22277015,70.39386792,60.24785592
59.91423671,70.00235849,60.05253002
59.81710978,69.78430532,59.92838765
59.83265437,69.73402659,59.92399228
59.83522727,69.66412950,59.92742281
59.84391081,69.63379074,59.93546312
59.85559605,69.64354631,59.92613636
59.92817324,69.68674957,59.94210978
59.94811321,69.70497427,59.98370497
59.93760720,69.71312178,60.01007719
59.94714837,69.71301458,59.95551029
60.00889794,69.76961835,60.04363208
60.07697256,69.84476844,60.08704974
60.13304031,69.92184820,60.13218268
60.20240137,69.98670669,60.22491424
60.26393654,70.10077187,60.24528302
60.32654374,70.20154374,60.31003431
60.38679245,70.28108919,60.34498285
60.43203259,70.35977702,60.41702401
60.46826758,70.42066895,60.38550600
60.54620497,70.55306604,60.53934391
60.60602487,70.66048456,60.59380360
60.66895369,70.76457976,60.65716123
60.76629503,70.89000858,60.74614065
60.80424528,70.95883362,60.76500858
60.92024014,71.13872213,60.86470840
60.89644082,71.13722127,60.83726415
60.45143654,70.72695111,60.47480703
60.03387650,70.25235849,60.17967410
59.88250429,69.94018010,59.94554031
59.87146226,69.80992710,59.90190823
59.86974700,69.69457547,59.90362350
59.85591767,69.64343911,59.92624357
59.88797170,69.61031304,59.87639365
59.94050172,69.63175386,59.95272298
59.99410377,69.67463551,60.01747427
59.98670669,69.70004288,59.99206690
59.98659949,69.68792882,60.01189966
60.00632504,69.69822041,60.04920669
60.05242281,69.74989280,60.00782590
60.15555317,69.84230274,60.13861492
60.21001286,69.92549314,60.20165094
60.26490137,70.04170240,60.26275729
60.34509005,70.12403516,60.29127358
60.38786449,70.18953688,60.33276158
60.45293739,70.30199400,60.45272298
60.50514580,70.39129503,60.45926244
60.55317324,70.51179245,60.48606346
60.62918096,70.59230274,60.57900943
60.69178816,70.72009005,60.65641081
60.74978559,70.80145798,60.66595197
60.82836621,70.94843482,60.67785163
60.88840051,71.07750858,60.79298885
60.98102487,71.18042453,60.90298027
61.00771870,71.24142367,60.93481990
60.85173671,71.11953259,60.77562178
60.32279160,70.58308319,60.34337479
60.01350772,70.07804460,60.01157804
59.90523156,69.80253002,60.01393654
59.86106346,69.63400515,59.87371355
59.86771012,69.56453688,59.86899657
59.85559605,69.46129931,59.90555317
59.85591767,69.41723842,59.86106346
59.88786449,69.43353345,59.89022298
59.92903087,69.44682676,59.87993139
59.95551029,69.45915523,59.90919811
59.97255575,69.50000000,59.95047170
59.96119211,69.48906518,59.93717839
60.06421527,69.58115352,59.98166810
60.15490995,69.70057890,60.11867496
60.23349057,69.77722985,60.12328473
60.26093482,69.86599485,60.19103774
60.33940823,69.98284734,60.28752144
60.41059177,70.05360206,60.33855060
60.47041166,70.19468268,60.38743568
60.53248285,70.30735420,60.46537307
60.60784734,70.42388508,60.52144082
60.69661235,70.56518010,60.61149228
60.74689108,70.63604202,60.65169383
60.87457118,70.77658662,60.77701544
60.89183105,70.87296312,60.80413808
60.98670669,71.02294168,60.84391081
61.06432247,71.15759005,60.92538593
61.11149228,71.22662950,60.94596913
60.81421527,70.97652230,60.72352058
60.26082762,70.39912093,60.26275729
60.01340051,69.96580189,60.04341767
59.91756003,69.70615352,59.95400943
59.94221698,69.60452401,59.93213979
59.92978130,69.52669383,59.91734563
59.91948971,69.44586192,59.88647084
59.99367496,69.47459262,59.89933533
60.07193396,69.55392367,59.99303173
60.06625214,69.50964837,60.01072041
60.05628216,69.52133362,59.97416381
60.04534734,69.51575901,59.94071612
60.08780017,69.53934391,59.95786878
60.14065180,69.64150943,60.03194683
60.20690395,69.72898799,60.10184391
60.29138079,69.84305317,60.18975129
60.41337907,70.02058319,60.29245283
60.46301458,70.11352916,60.35130789
60.54984991,70.20936964,60.46708834
60.58340480,70.29995712,60.46269297
60.64912093,70.41048456,60.47630789
60.74163808,70.52658662,60.63271870
60.81668096,70.67238422,60.64879931
60.85881218,70.77283448,60.66884648
60.91680961,70.89129503,60.74421098
60.99228130,71.00728988,60.77615780
61.07461407,71.12585763,60.87650086
60.92527873,71.04191681,60.78012436
60.38990137,70.49431818,60.40726844
60.06260720,69.99078045,60.06839623
59.95894082,69.71344340,59.96258576
60.00589623,69.63411235,59.94178816
60.03741424,69.60366638,59.99560463
60.05360206,69.59498285,59.97448542
60.06850343,69.65276587,60.02412093
60.12403516,69.67549314,60.05928388
60.16509434,69.71226415,60.09369640
60.14000858,69.70304460,60.03859348
60.17881647,69.71955403,60.11213551
60.20358062,69.74796312,60.07279160
60.30381647,69.83747856,60.16809605
60.35323756,69.91305746,60.22609348
60.42442110,70.04234563,60.35280875
60.47502144,70.13647084,60.36181389
60.57504288,70.27315609,60.43546312
60.63722127,70.38036021,60.46419383
60.67720840,70.47287736,60.53248285
60.75214408,70.59755575,60.55960549
60.80360206,70.64408233,60.60463122
60.84852058,70.76747427,60.70979846
61.00525300,70.95229417,60.85881218
61.08458405,71.08865780,60.89504717
61.15244425,71.17903087,60.94618353
60.94575472,71.03087479,60.81303602
60.36288593,70.42141938,60.38625643
59.98970840,69.86942539,60.00921955
59.87735849,69.52015437,59.87950257
59.85195111,69.35516724,59.82922384
59.83662093,69.23434820,59.79845626
59.83447684,69.14751286,59.75021441
59.85774014,69.16477273,59.75846913
59.92292024,69.24024443,59.81700257
59.94972127,69.27111921,59.89376072
59.94478988,69.25696827,59.80713979
59.95904803,69.24463979,59.83769297
59.99871355,69.26693825,59.84048027
60.05510292,69.35162950,59.92753002
60.13990137,69.43449828,59.96558748
60.21108491,69.57021870,60.11352916
60.27551458,69.67109777,60.13550600
60.35581046,69.76275729,60.19135935
60.41112779,69.82643654,60.24989280
60.46762436,69.95454545,60.26114923
60.51114923,70.04952830,60.36299314
60.60045026,70.13861492,60.42656518
60.62039022,70.24346055,60.45936964
60.66359348,70.33662093,60.57204117
60.76629503,70.46719554,60.60355918
60.82943825,70.57407804,60.66434391
60.84262436,70.63786449,60.73134648
60.50310892,70.36310034,60.42056175
59.98445540,69.64483276,59.96601630
59.71676672,69.09948542,59.62650086
59.61899657,68.77873070,59.56989708
59.60774014,68.60452401,59.51297170
59.55317324,68.45626072,59.48692110
59.53344768,68.40222985,59.43181818
59.55874786,68.38421955,59.48306175
59.60184391,68.39708405,59.45540309
59.63947256,68.40748285,59.49024443
59.62628645,68.40801887,59.48992281
59.64193825,68.39386792,59.51908233
59.69993568,68.42034734,59.50782590
59.73734991,68.49785592,59.58340480
59.78837907,68.59669811,59.64772727
59.90962693,68.71665952,59.73252573
59.97984563,68.82933105,59.77873070
60.07268439,68.95990566,59.87542882
60.14054460,69.05671098,59.96451544
60.17463551,69.20057890,59.91991852
60.23960120,69.30049314,60.04298885
60.33447684,69.46183533,60.10591767
60.43524871,69.57011149,60.18975129
60.52905232,69.67999571,60.29513293
60.61953259,69.84037307,60.38068182
60.71537307,69.99088765,60.38561321
60.80896226,70.14665523,60.52465695
60.65319468,70.02712264,60.39161664
60.12542882,69.44746998,59.92152659
59.75804031,68.79020154,59.61803173
59.58061750,68.38400515,59.45218696
59.53827187,68.19972127,59.37725129
59.51093482,68.08319039,59.31475129
59.53291166,67.99667667,59.31807461
59.55424528,67.99614065,59.30574614
59.58747856,67.99742710,59.34240995
59.62853774,68.04663379,59.34380360
59.64708405,68.05638937,59.38486278
59.66981132,68.07461407,59.42409949
59.71451544,68.10409520,59.42720840
59.74914237,68.17088336,59.45240137
59.82032590,68.28087479,59.51993997
59.88529160,68.39065180,59.63186106
59.95690395,68.48520583,59.70325901
60.01833190,68.59080189,59.75310892
60.08576329,68.71912521,59.76929674
60.11138508,68.77412093,59.82493568
60.22566467,68.90834048,59.93235420
60.28259005,69.00750429,59.98284734
60.34198113,69.11942539,60.08233276
60.37156947,69.26029160,60.12800172
60.45551029,69.38432676,60.16777444
60.54202401,69.52658662,60.28580617
60.63496998,69.63840051,60.30413808
60.54416810,69.56174957,60.20904803
60.03687822,69.00128645,59.78773585
59.68492710,68.42270583,59.47716552
59.53248285,68.05156518,59.31807461
59.50493139,67.88507719,59.29245283
59.51822470,67.82525729,59.28623499
59.54427530,67.80563894,59.25053602
59.56325043,67.81282161,59.28387650
59.62124786,67.85774014,59.34423242
59.59444683,67.86996141,59.31893225
59.60002144,67.86417238,59.30628216
59.61202830,67.85259434,59.33587050
59.65694683,67.90072899,59.36363636
59.72512864,67.95776158,59.46119211
59.80092196,68.07815180,59.50332333
59.88818611,68.20229417,59.59187393
60.00750429,68.37028302,59.69232419
60.05971269,68.49238851,59.77840909
60.16627358,68.60752573,59.82536449
60.22727273,68.73756432,59.95132933
60.29063036,68.82900943,59.93642796
60.35913379,68.92903087,60.06861063
60.41670240,69.05285163,60.07729417
60.48134648,69.17881647,60.13807890
60.56378645,69.30392367,60.21901801
60.54063036,69.32322041,60.20572470
60.14762007,68.92463551,59.91219983
59.68782161,68.26157804,59.50986278
59.50353774,67.84830617,59.26811750
59.43439108,67.58704974,59.13164666
59.41948971,67.45808319,59.11138508
59.39461835,67.39740566,59.09401801
59.39997856,67.35452401,59.05306604
59.43289022,67.39086621,59.09455403
59.47352058,67.42870926,59.17013293
59.48327616,67.43803602,59.17388508
59.48927959,67.44982847,59.16080617
59.50214408,67.47277015,59.18117496
59.57150515,67.53376930,59.24153087
59.66563036,67.65962693,59.32858062
59.74882075,67.80928388,59.45679674
59.81367925,67.90437393,59.49313894
59.92174099,68.01393654,59.58233276
60.00471698,68.15973413,59.66831046
60.10173671,68.29020154,59.74796312
60.16659520,68.42774443,59.84391081
60.24378216,68.54180961,59.88421955
60.31893225,68.66091338,59.92549314
60.42731561,68.83640652,60.04802744
60.52508576,68.98091767,60.11277873
60.65394511,69.13679245,60.28451973
60.75460978,69.31357204,60.38668525
60.69446827,69.28537736,60.35763293
60.22952401,68.75418096,59.90962693
59.81700257,68.05478130,59.54470412
59.57804460,67.58747856,59.25300172
59.53752144,67.30939108,59.14772727
59.45583190,67.16852487,59.08597770
59.37210549,66.99045883,58.95658233
59.41863208,66.96087050,59.01147084
59.47405660,66.96848199,59.03923671
59.52208405,67.01715266,59.04738422
59.52412093,67.08415523,59.11117067
59.56614494,67.08201115,59.11888937
59.56668096,67.13572041,59.13572041
59.64472556,67.20840480,59.21548027
59.73906518,67.34691252,59.31410806
59.86695969,67.48831475,59.38218268
59.96526587,67.62907376,59.52422813
60.02873070,67.75064322,59.57289880
60.13968696,67.94650515,59.71408662
60.23198971,68.08147513,59.79009434
60.34444683,68.26575901,59.89976415
60.42431389,68.38250429,59.94875643
60.52519297,68.53848628,60.07557890
60.63282590,68.67463551,60.15598199
60.73734991,68.85291595,60.27701544
60.85420240,69.02530017,60.38593482
60.93449828,69.14890652,60.42806604
60.99689108,69.26833190,60.46408662
60.73252573,68.95936964,60.22352058
60.28237564,68.30853345,59.82654374
60.04298885,67.76918954,59.56807461
59.98209691,67.48810034,59.40040738
59.95390223,67.32268439,59.37328473
59.89751286,67.20025729,59.35741852
59.89333190,67.16477273,59.31893225
59.94489708,67.20561750,59.33876501
59.98895798,67.25804031,59.38239708
60.00010720,67.32622213,59.44028731
60.02626501,67.32750858,59.48445540
60.07086192,67.38647084,59.49474700
60.12178388,67.45776158,59.53023156
60.23113208,67.59305317,59.65780446
60.31796741,67.71312178,59.72148370
60.38647084,67.84873499,59.77497856
60.48917238,68.03226844,59.89954974
60.57407804,68.17870926,59.99260292
60.63925815,68.33908662,60.08994425
60.73081046,68.48917238,60.16498714
60.81089194,68.57868782,60.18696398
60.89740566,68.73445540,60.30585334
60.97330617,68.87875214,60.40448113
61.08908662,69.04384648,60.46773156
61.19746998,69.19704117,60.57139794
61.21816038,69.26918954,60.61417238
60.95561750,68.99656947,60.38850772
60.60538165,68.43235420,60.02562178
60.42999571,67.97373499,59.81078473
60.38218268,67.79470412,59.71558748
60.42270583,67.70808319,59.72587907
60.42216981,67.66102058,59.71483705
60.45776158,67.67152659,59.75664666
60.57836621,67.76747427,59.85173671
60.58887221,67.81764580,59.81228559
60.59058748,67.87467839,59.85709691
60.61406518,67.90437393,59.89022298
60.67066895,67.95047170,59.94232419
60.72502144,68.06978988,60.03398370
60.80135077,68.22073328,60.14204545
60.85313036,68.39515437,60.16831046
60.95336621,68.52047599,60.23231132
61.02894511,68.67517153,60.39772727
61.07332762,68.79202401,60.39665523
61.16509434,69.00407376,60.53516295
61.26189966,69.12810892,60.56743139
61.35409520,69.27133362,60.66348628
61.44564751,69.36846055,60.76768868
61.52776587,69.54491852,60.87467839
61.62392796,69.68138937,60.96290738
61.70304460,69.84927101,61.04566895
61.56593053,69.76533019,60.96129931
61.20454545,69.27337050,60.60313036
60.95240137,68.74635506,60.32075472
60.80638937,68.43396226,60.11342196
60.79052316,68.31818182,60.05338765
60.77036878,68.21269297,60.07096913
60.72770154,68.11921098,60.00085763
60.73134648,68.13765009,60.02444254
60.80563894,68.24388937,60.05328045
60.83436964,68.29427530,60.12617925
60.82525729,68.31089194,60.12628645
60.84069468,68.37521441,60.16380789
60.87853774,68.43085334,60.20358062
60.96601630,68.58887221,60.31700257
61.03291166,68.69350343,60.36996141
61.10891938,68.82096913,60.48134648
61.21076329,68.97212693,60.56496569
61.24860635,69.05799743,60.60688250
61.36009863,69.25889794,60.73767153
61.40180103,69.36449400,60.81496569
61.44018010,69.48284734,60.72255575
61.54974271,69.63507719,60.86213551
61.64333190,69.79749142,60.94822041
61.74013722,69.91616638,61.07804460
61.82793739,70.08051029,61.13454117
61.94018010,70.19875643,61.24785592
61.97866638,70.35345197,61.32129074
61.92806604,70.37596484,61.25975557
61.59755575,69.97684391,60.93353345
61.27787307,69.41295026,60.70175815
61.08972985,69.10602487,60.50353774
61.04416810,68.96312178,60.44253859
61.02369211,68.87274871,60.37382075
60.99067324,68.78419811,60.37382075
60.98606346,68.75578902,60.41873928
61.00246569,68.83136792,60.44929245
61.03837907,68.88207547,60.48327616
61.05949828,68.91863208,60.49067324
61.06496569,68.92667238,60.50814751
61.11406518,69.00643225,60.54502573
61.16970412,69.08844340,60.50568182
61.25964837,69.21376501,60.64858491
61.32214837,69.34444683,60.75932676
61.38990137,69.44864923,60.82472127
61.45454545,69.56753859,60.90951973
61.54759863,69.73820755,61.01243568
61.63089623,69.84165952,61.04298885
61.71022727,69.99989280,61.09509005
61.75900515,70.12092624,61.18996569
61.83426244,70.23584906,61.20497427
61.91112779,70.37231990,61.25653945
61.96515866,70.53076758,61.36395798
62.04427530,70.65212264,61.41284305
62.15169383,70.78119640,61.52733705
62.20947684,70.91380789,61.58126072
62.26072041,71.04481132,61.63679245
62.11245712,70.95336621,61.55799743
61.72191252,70.45154374,61.15351630
61.43213979,69.98102487,60.99431818
61.33865780,69.73509863,60.83243997
61.27787307,69.58812178,60.68975129
61.28376930,69.55671098,60.78055317
61.25257290,69.48649228,60.73777873
61.30810463,69.50986278,60.80831904
61.33201115,69.54148799,60.84123070
61.34262436,69.59283877,60.82075472
61.36009863,69.58715695,60.78162521
61.37424957,69.60988422,60.82364923
61.40340909,69.66520154,60.84573328
61.43471269,69.73745712,60.86481561
61.51200686,69.82611492,60.93674957
61.54095197,69.90630360,60.99785592
61.61074185,70.01211407,61.09423242
61.66295026,70.11599485,61.13915094
61.77798027,70.28012436,61.24774871
61.84369640,70.39901372,61.30360206
61.86588765,70.48574185,61.33458405
61.93900086,70.61738851,61.42763722
61.99153087,70.72995283,61.45572470
62.03462693,70.83329760,61.48617067
62.10066467,70.98059605,61.54899228
62.19103774,71.05703259,61.67838765
62.22416381,71.21301458,61.61352916
62.20819039,71.23863636,61.71204974
61.93696398,70.89515437,61.45004288
61.58672813,70.38968696,61.10087907
61.38014580,70.01050600,60.98477702
61.34348199,69.84519726,60.90030017
61.31357204,69.76876072,60.88561321
61.31710978,69.73456261,60.88228988
61.34551887,69.75396655,60.91412950
61.39826329,69.81442967,60.91048456
61.40951973,69.86449400,60.93910806
61.41091338,69.84123070,60.97201973
61.39611921,69.83243997,60.92506432
61.41273585,69.88464837,60.95347341
61.46505146,69.93096055,60.97577187
61.55585334,70.03548456,61.11374357
61.60334477,70.11706690,61.12028302
61.64751286,70.19789880,61.11749571
61.71944683,70.33286878,61.17720840
61.78880789,70.42924528,61.18460549
61.84155232,70.49871355,61.27122642
61.95143654,70.65812607,61.42999571
61.97555746,70.78108919,61.45776158
62.02433533,70.86267153,61.50032161
62.09669811,70.95990566,61.55896226
62.13196827,71.07515009,61.62103345
62.20808319,71.19028731,61.70936964
62.28934391,71.36395798,61.72459262
62.28784305,71.38689966,61.76790309
61.93181818,71.04352487,61.41616638
61.51457976,70.41938250,61.07890223
61.26801029,69.97084048,60.87692967
61.23499142,69.76693825,60.77701544
61.17538593,69.60784734,60.74871355
61.14322470,69.46483705,60.67581475
61.10345197,69.39890652,60.67677959
61.11878216,69.42281304,60.69639794
61.17088336,69.46012007,60.71912521
61.16434391,69.47051887,60.71194254
61.14847770,69.45379503,60.73081046
61.16702401,69.47620069,60.74528302
61.21805317,69.53194683,60.77615780
61.28709262,69.60420240,60.80167238
61.33126072,69.68460549,60.89536878
61.43203259,69.82783019,60.92367067
61.48070326,69.91895369,60.99056604
61.55703259,70.01415094,61.07675815
61.59616209,70.08822899,61.10945540
61.67945969,70.22126930,61.15608919
61.76125643,70.37403516,61.20958405
61.81743139,70.45143654,61.25396655
61.88861492,70.55778302,61.30864065
61.94757719,70.68299743,61.46515866
61.99378216,70.79438250,61.51007719
62.02733705,70.92442110,61.54320326
62.16080617,71.06024871,61.57890223
62.14536878,71.12735849,61.57868782
61.95229417,70.94993568,61.51790309
61.50750429,70.35956261,61.13679245
61.18138937,69.77337050,60.74013722
61.02969554,69.48166810,60.64461835
60.95304460,69.29009434,60.57761578
60.89633362,69.14311750,60.46944683
60.88164666,69.04438250,60.43310463
60.90951973,69.04824185,60.45390223
60.96044168,69.10002144,60.50696827
60.98113208,69.10656089,60.48906518
60.97941681,69.11449400,60.48434820
60.99142367,69.13464837,60.52294168
61.03130360,69.17774443,60.49957118
61.07096913,69.23134648,60.54545455
61.15641081,69.36717410,60.68492710
61.24860635,69.50075043,60.72716552
61.29491852,69.56828902,60.78998714
61.38293310,69.71505146,60.84412521
61.41069897,69.78248285,60.91069897
61.53183962,69.94436106,61.01790309
61.59530446,70.04320326,61.04770583
61.66337907,70.17388508,61.11899657
61.72802316,70.28977273,61.19886364
61.79384648,70.40876930,61.25546741
61.82472127,70.51125643,61.28291166
61.92688679,70.62950257,61.44704117
61.99260292,70.75996998,61.50675386
62.06839623,70.94082333,61.54116638
62.07943825,70.97309177,61.57750858
61.73788593,70.66434391,61.27433533
61.31250000,70.04920669,60.87103345
61.09198113,69.61878216,60.65759005
61.04148799,69.43042453,60.56442967
61.03033877,69.35966981,60.55928388
61.00664666,69.31089194,60.53987993
61.02787307,69.28859348,60.56518010
61.04834906,69.32279160,60.61267153
61.11856775,69.37650086,60.64386792
61.10034305,69.38593482,60.62307033
61.10527444,69.37285592,60.65673242
61.10602487,69.40448113,60.68364065
61.17292024,69.45336621,60.71515866
61.22620069,69.53880789,60.80102916
61.28516295,69.62778731,60.79459691
61.36149228,69.74378216,60.82890223
61.42066895,69.85870497,60.90716123
61.50300172,69.96633791,60.97234134
61.58179674,70.07493568,61.09744854
61.58640652,70.22062607,61.12843053
61.68471269,70.33608491,61.20122213
61.71505146,70.44704117,61.19339623
61.80981990,70.57054031,61.31003431
61.91509434,70.72062607,61.43224700
61.98284734,70.82675815,61.50493139
62.06228559,70.97780875,61.53934391
62.01200686,71.02830189,61.53259005
61.67002573,70.64429674,61.24957118
61.25439537,70.06400086,60.88411235
61.01768868,69.68535592,60.64397513
60.97695111,69.53548456,60.53719983
60.94704117,69.46933962,60.54009434
60.93621355,69.39097341,60.54105918
60.96076329,69.38593482,60.56110635
60.98938679,69.45143654,60.60087907
61.03977273,69.49624786,60.64954974
61.04867067,69.53773585,60.68932247
61.05628216,69.53762864,60.65276587
61.05864065,69.59208834,60.56635935
61.10924099,69.65448113,60.69457547
61.19875643,69.75107204,60.79695540
61.25771870,69.88572041,60.85527444
61.34991424,69.99699828,60.91230703
61.41702401,70.09862779,60.95475986
61.51232847,70.24539022,61.07343482
61.57322041,70.34466123,61.09530446
61.62403516,70.48852916,61.17527873
61.70015009,70.60795455,61.23659949
61.75718268,70.73852916,61.31078473
61.78173242,70.83512007,61.31153516
61.88346913,70.98145369,61.40105060
61.96344340,71.10495283,61.53484134
62.01908233,71.23842196,61.58876501
62.09080189,71.34230274,61.60366638
62.00996998,71.33329760,61.58737136
61.53934391,70.84380360,61.18728559
61.09530446,70.25268010,60.80392367
60.91616638,69.81625214,60.61127787
60.84809177,69.66434391,60.54920669
60.82643654,69.54920669,60.54170240
60.76801029,69.44661235,60.46204974
60.74646226,69.37896655,60.49217410
60.78366209,69.41230703,60.47319897
60.85280875,69.48531304,60.47416381
60.84198113,69.48627787,60.51393654
60.83726415,69.50450257,60.57911664
60.85495283,69.51940395,60.58093911
60.86921098,69.60098628,60.60548885
60.94371784,69.69607633,60.64075901
61.01768868,69.79513293,60.72030446
61.10838336,69.90984134,60.81957547
61.16102058,70.01843911,60.87950257
61.22234134,70.13186106,60.92517153
61.27690823,70.25889794,60.94822041
61.37703688,70.40941252,61.05713979
61.45100772,70.50225129,61.13882933
61.50643225,70.61749571,61.18353345
61.57911664,70.73499142,61.27251286
61.65040738,70.83822899,61.28012436
61.70336621,70.97416381,61.32364923
61.76597341,71.08608491,61.40962693
61.83672813,71.18578473,61.44822041
61.89944254,71.32311321,61.55553173
61.76768868,71.23681389,61.47523585
61.24924957,70.70551029,61.01554460
60.85355918,70.14322470,60.69232419
60.66027015,69.75911235,60.56721698
60.62843053,69.56132075,60.47405660
60.59798456,69.44811321,60.39193825
60.54170240,69.32729417,60.30735420
60.56164237,69.35623928,60.34894940
60.61438679,69.38582762,60.36567324
60.65405232,69.43750000,60.48188250
60.64804889,69.45100772,60.43149657
60.64611921,69.45636792,60.43642796
60.67710120,69.48027444,60.45068611
60.76157804,69.56560892,60.55060034
60.81142796,69.65190823,60.50503859
60.89290309,69.75911235,60.68213979
60.95315180,69.84551887,60.74024443
60.98102487,70.01618782,60.74882075
61.04545455,70.08619211,60.83533448
61.11406518,70.18289022,60.83447684
61.21494425,70.30992710,60.94478988
61.25750429,70.42452830,60.98456261
61.35388079,70.55263722,61.14762007
61.42227702,70.69993568,61.14204545
61.49217410,70.82236278,61.22159091
61.58651372,70.94693396,61.23917238
61.65619640,71.04749142,61.31957547
61.71140652,71.16337907,61.44725557
61.75986278,71.28516295,61.51457976
61.67710120,71.26608062,61.46355060
61.18267581,70.75235849,60.99892796
60.81271441,70.15362350,60.63732847
60.60838336,69.76683105,60.50611063
60.56914666,69.57536449,60.43621355
60.53902230,69.50514580,60.40201544
60.52454974,69.42935249,60.38947256
60.55242281,69.45851201,60.40512436
60.60002144,69.50096484,60.47759434
60.62843053,69.54073756,60.51243568
60.60709691,69.54556175,60.47716552
60.59905660,69.53237564,60.47362779
60.61063465,69.50814751,60.47277015
60.65909091,69.58704974,60.52337050
60.71376501,69.69146655,60.56389365
60.80242281,69.78548456,60.61888937
60.84251715,69.85945540,60.65040738
60.94832762,70.00021441,60.69446827
61.03066038,70.13078902,60.80403087
60.99678388,70.14751286,60.74614065
61.13979417,70.33018868,60.89858491
61.17624357,70.41916810,60.97813036
61.27047599,70.52497856,61.04899228
61.31560892,70.64965695,61.05338765
61.42860206,70.77594340,61.14622642
61.51275729,70.92056175,61.27862350
61.53205403,71.01683105,61.30027873
61.27701544,70.81196398,61.08061750
60.79609777,70.21912521,60.64236707
60.43085334,69.63025300,60.32515009
60.29148799,69.32064751,60.19736278
60.25750429,69.19532590,60.14858491
60.23381218,69.12339194,60.12146226
60.25750429,69.09305317,60.10484563
60.29202401,69.10656089,60.13186106
60.32922384,69.14247427,60.17592196
60.35698971,69.16080617,60.17345626
60.37189108,69.17077616,60.20808319
60.36942539,69.15373070,60.24313894
60.39451115,69.19253859,60.23477702
60.46548027,69.27165523,60.32246998
60.53698542,69.38797170,60.37382075
60.60130789,69.51833190,60.46665952
60.67785163,69.63432676,60.50825472
60.74667667,69.78162521,60.55992710
60.81796741,69.86728130,60.68396226
60.86556604,69.94661235,60.67345626
60.96344340,70.11159949,60.77883791
61.01307890,70.17174099,60.82375643
61.07783019,70.30617496,60.88507719
61.13282590,70.46901801,60.88175386
61.27176244,70.63175386,61.08972985
61.35538165,70.77669383,61.13518439
61.35827616,70.85977702,61.14644082
61.32975986,70.85849057,61.10956261
60.86042024,70.34326758,60.69639794
60.38979417,69.67174099,60.34476844
60.11460120,69.14183105,60.03955832
60.05735420,68.90748285,59.94414666
60.00804031,68.72866638,59.89569039
59.93599914,68.60473842,59.84080189
59.93181818,68.55081475,59.80145798
59.98949400,68.57890223,59.84734134
60.01147084,68.62317753,59.88968696
60.00793310,68.63379074,59.97277015
60.00439537,68.62960978,59.88775729
60.05038593,68.67131218,59.93181818
60.07697256,68.72084048,59.94918525
60.19339623,68.84626930,60.06089194
60.26329331,68.93739280,60.08297599
60.36095626,69.07429245,60.20122213
60.43825043,69.18825043,60.26736707
60.53173242,69.34412521,60.38529160
60.64140223,69.47823756,60.47201973
60.68031732,69.58812178,60.49506861
60.74721269,69.71355060,60.59691252
60.84208834,69.87489280,60.59058748
60.92227702,70.01082762,60.72480703
61.01479417,70.13443396,60.81132075
61.10741852,70.28066038,60.88529160
61.19135935,70.44114494,60.94350343
61.21044168,70.57043310,60.96708834
61.18589194,70.58747856,60.97598628
60.74742710,70.16273585,60.64686964
60.31389365,69.49313894,60.18717839
60.04041595,68.94629074,59.96687393
59.92399228,68.67313465,59.82429245
59.88454117,68.52626501,59.73102487
59.84198113,68.42602916,59.68546312
59.87296312,68.38175386,59.74281732
59.91530875,68.39729846,59.74078045
59.93932247,68.46912521,59.80017153
59.93085334,68.46129931,59.82943825
59.93342624,68.43814322,59.79534734
59.98606346,68.48692110,59.82911664
60.02712264,68.55585334,59.86374357
60.12757290,68.69253859,59.89258148
60.21655232,68.80102916,60.01307890
60.26018439,68.90769726,60.13068182
60.37885935,69.04331046,60.20240137
60.43449828,69.15362350,60.23038165
60.52562178,69.28569897,60.34358919
60.58061750,69.42924528,60.36042024
60.63389794,69.54084477,60.41498714
60.72212693,69.67538593,60.53001715
60.78301887,69.77937393,60.64858491
60.87628645,69.92753002,60.68331904
60.94135935,70.04813465,60.75332333
61.02240566,70.22909520,60.83351201
60.98338336,70.19650515,60.77262007
60.51972556,69.68953688,60.38228988
60.09766295,69.06743139,60.03291166
59.84069468,68.58833619,59.77765866
59.81078473,68.39526158,59.68299743
59.81453688,68.34948542,59.67817324
59.81764580,68.31314322,59.69736278
59.87339194,68.32536449,59.69607633
59.90651801,68.40973413,59.75450257
59.94650515,68.45036449,59.79877787
59.96237136,68.46472985,59.80585334
59.95958405,68.47223413,59.81400086
59.99860635,68.51082762,59.81357204
60.05628216,68.58608491,59.86974700
60.17002573,68.72019726,60.00000000
60.24646226,68.81357204,60.02948113
60.33629931,68.98145369,60.13325472
60.37349914,69.10441681,60.21226415
60.45947684,69.22427101,60.34155232
60.55574614,69.35656089,60.35570326
60.58286878,69.48145369,60.35966981
60.65094340,69.60827616,60.42645798
60.72888079,69.72523585,60.51104202
60.82890223,69.87242710,60.54952830
60.87371355,69.96676672,60.64686964
60.92120497,70.12060463,60.67506432
60.69082333,69.89408233,60.50257290
60.16809605,69.25578902,60.03859348
59.82139794,68.59927101,59.67409949
59.65984134,68.20936964,59.51897513
59.59401801,68.07086192,59.41820326
59.59509005,67.97009005,59.40319468
59.57075472,67.91595197,59.42302744
59.61020583,67.91659520,59.45626072
59.67024014,67.98156089,59.46998285
59.68632075,68.02144082,59.50879074
59.66981132,68.03194683,59.52058319
59.68685678,68.05006432,59.52476415
59.72973842,68.10323756,59.56271441
59.81142796,68.20936964,59.58865780
59.90791166,68.34659091,59.68042453
59.98767153,68.47287736,59.80070755
60.07858062,68.62875214,59.89697684
60.13539880,68.77369211,59.94757719
60.17956690,68.84423242,59.96880360
60.27390652,68.98188250,60.03205403
60.34766295,69.11631647,60.15576758
60.37532161,69.22995283,60.16434391
60.50375214,69.40683962,60.26147084
60.60055746,69.55746141,60.40587479
60.66477273,69.68771441,60.50589623
60.75075043,69.81614494,60.50825472
60.80049314,69.96816038,60.61974700
60.66648799,69.86138508,60.46387221
60.08651372,69.23874357,60.04942110
59.67667238,68.50536021,59.59455403
59.50000000,68.06003431,59.40158662
59.42999571,67.83737136,59.28955832
59.38518439,67.70079331,59.25418096
59.31400086,67.58758576,59.16563036
59.34155232,67.56603774,59.14279588
59.40180103,67.63936535,59.26072041
59.44822041,67.70829760,59.28569897
59.43031732,67.71183533,59.27873070
59.46590909,67.76672384,59.32418525
59.53280446,67.84562607,59.34819897
59.55660377,67.91187822,59.41616638
59.65930532,68.05703259,59.53687822
59.73048885,68.15909091,59.57118353
59.82300600,68.35259434,59.66605918
59.91509434,68.48113208,59.74313894
60.01736707,68.65072899,59.88014580
60.09187393,68.75203688,59.94457547
60.17699400,68.92549314,60.02647942
60.26554460,69.06378645,60.07536449
60.29234563,69.17635077,60.13239708
60.39247427,69.33994425,60.21923242
60.47727273,69.49206690,60.31603774
60.54909949,69.63529160,60.39301029
60.63968696,69.81593053,60.43642796
60.68814322,69.93342624,60.49045883
60.67409949,69.94318182,60.48177530
60.22094768,69.48488422,60.14075901
59.72512864,68.77765866,59.68975129
59.50160806,68.22780875,59.47180532
59.40673242,68.01157804,59.33190395
59.38368353,67.88432676,59.32600772
59.34637650,67.78055317,59.24989280
59.32825901,67.77337050,59.24785592
59.38979417,67.81689537,59.28752144
59.40716123,67.88057461,59.33662093
59.40233705,67.87960978,59.34337479
59.39472556,67.87928816,59.33662093
59.44822041,67.92249142,59.35473842
59.49453259,67.99581904,59.43149657
59.58479846,68.12789451,59.54105918
59.64847770,68.27433533,59.53505575
59.73509863,68.42785163,59.65898370
59.82632933,68.52658662,59.76007719
59.90555317,68.69135935,59.85559605
59.97845197,68.82364923,59.86245712
60.05220840,68.96580189,59.94993568
60.16734563,69.13475557,60.10859777
60.24764151,69.26265009,60.16595197
60.32922384,69.39097341,60.21708834
60.40512436,69.54663379,60.25996998
60.48156089,69.67388508,60.34048027
60.52058319,69.78837907,60.42259863
60.49249571,69.84626930,60.42624357
60.09348199,69.44403945,60.04331046
59.65190823,68.78998714,59.61867496
59.44950686,68.34937822,59.39954974
59.40930532,68.15115780,59.36706690
59.36310034,68.08265437,59.36867496
59.38518439,68.06057033,59.37489280
59.42978130,68.08522727,59.36910377
59.52712264,68.21194254,59.50439537
59.57332762,68.27980274,59.54138079
59.54716981,68.27830189,59.55810463
59.54674099,68.29245283,59.51565180
59.58608491,68.33501286,59.59530446
59.64065180,68.41037736,59.62435678
59.74742710,68.53580617,59.71162093
59.83908662,68.70572470,59.80156518
59.89569039,68.84316038,59.84744854
60.00568182,69.00482419,59.95122213
60.04277444,69.11931818,60.03848628
60.12285592,69.27980274,60.07439966
60.21665952,69.39333190,60.18171098
60.29845626,69.53430532,60.24957118
60.33265437,69.65255146,60.27626501
60.41916810,69.78130360,60.36878216
60.50536021,69.93717839,60.48627787
60.57011149,70.06603774,60.49271012
60.62092624,70.19489708,60.54931389
60.33351201,69.94371784,60.26961835
59.80649657,69.22523585,59.88604202
59.44382504,68.55638937,59.52444254
59.30853345,68.18053173,59.34219554
59.23810034,68.02969554,59.22866638
59.19939966,67.90780446,59.23627787
59.16102058,67.81389365,59.15415952
59.16337907,67.79674099,59.13529160
59.23123928,67.86867496,59.24603345
59.24721269,67.89343911,59.27208405
59.25268010,67.93342624,59.28076758
59.27840909,67.96494425,59.34123070
59.30949828,68.01318611,59.35366638
59.41938250,68.16273585,59.45926244
59.50932676,68.28141081,59.52969554
59.57407804,68.42549314,59.65298027
59.67945969,68.59005146,59.68396226
59.78548456,68.71923242,59.76189966
59.82632933,68.86427959,59.84369640
59.88743568,68.97941681,59.94511149
59.95904803,69.11899657,59.96162093
60.07386364,69.23574185,60.01554460
60.13550600,69.38593482,60.12092624
60.18632075,69.51951115,60.15415952
60.27926672,69.62017581,60.22416381
60.35066467,69.78205403,60.31464408
60.40984134,69.92913808,60.44050172
60.41648799,69.98123928,60.44457547
59.98134648,69.54481132,60.08490566
59.45872642,68.72480703,59.58822899
59.14847770,68.11545883,59.27798027
59.03580617,67.80960549,59.17881647
58.98145369,67.61931818,59.00546741
58.94864923,67.51554460,58.93707118
58.95304460,67.45969125,59.01672384
58.97234134,67.49399657,59.02765866
59.01447256,67.58136792,59.09744854
59.05553173,67.62521441,59.12542882
59.08887221,67.65726844,59.16027015
59.13614923,67.73992281,59.18653516
59.17527873,67.79834906,59.20551029
59.27133362,67.93578473,59.29427530
59.39547599,68.08029588,59.47823756
59.50096484,68.22566467,59.50546741
59.60055746,68.39215266,59.63357633
59.66102058,68.51650943,59.67088336
59.75439537,68.69736278,59.78055317
59.83158233,68.85280875,59.82043310
59.91563036,68.97223413,59.86159949
60.01640223,69.10709691,59.99431818
60.10227273,69.26007719,60.08340480
60.21580189,69.42034734,60.20593911
60.29984991,69.57450686,60.28419811
60.35012864,69.73992281,60.38164666
60.39033019,69.90490995,60.41134220
60.37178388,69.92388508,60.40158662
59.91938250,69.42838765,60.07011149
59.50042882,68.69618353,59.62757290
59.31057033,68.20808319,59.36138508
59.22845197,67.96494425,59.28205403
59.20647513,67.91723842,59.24485420
59.18160377,67.81989708,59.15630360
59.20979846,67.81721698,59.19178816
59.27562178,67.86738851,59.24796312
59.33104631,67.97770154,59.33962264
59.35473842,67.98574185,59.36074185
59.36117067,68.01983276,59.35709691
59.37778731,68.07418525,59.38700686
59.44682676,68.17452830,59.45990566
59.53934391,68.31764580,59.56828902
59.60977702,68.43138937,59.61942539
59.71419383,68.61084906,59.77315609
59.79116638,68.72062607,59.78644940
59.87564322,68.86578045,59.86234991
59.91466552,68.96590909,59.92624357
59.99474700,69.11117067,59.99539022
60.04438250,69.24549743,60.06753859
60.14633362,69.37918096,60.09208834
60.21966123,69.50246569,60.23552744
60.28644940,69.64901372,60.30831904
60.38947256,69.82364923,60.37296312
60.42345626,69.93096055,60.43074614
60.25171527,69.74635506,60.26114923
59.79373928,69.14386792,59.82632933
59.46022727,68.52669383,59.48981561
59.30992710,68.21923242,59.34616209
59.29577616,68.13582762,59.32493568
59.27722985,68.08554889,59.35463122
59.31367925,68.08490566,59.32911664
59.40544597,68.16916810,59.43567753
59.47459262,68.28076758,59.46987564
59.49785592,68.31732419,59.49013722
59.51715266,68.31903945,59.47620069
59.52497856,68.33115352,59.52733705
59.57815180,68.43857204,59.61910377
59.67152659,68.56389365,59.65501715
59.74860635,68.72116209,59.74238851
59.83833619,68.86127787,59.84948542
59.89301029,68.97662950,59.91187822
60.01072041,69.15437393,60.03430532
60.06710978,69.25836192,59.97748714
60.11856775,69.40909091,60.12114065
60.21440823,69.52487136,60.18374786
60.27079760,69.62006861,60.23799314
60.33565609,69.77454974,60.30971269
60.38379074,69.89944254,60.34991424
60.50514580,70.07439966,60.51543739
60.54084477,70.17935249,60.53784305
60.53870069,70.22459262,60.54641938
60.14386792,69.79674099,60.17967410
59.66809605,69.14322470,59.73284734
59.42356346,68.59251715,59.49539022
59.28773585,68.27015437,59.33533448
59.26200686,68.13228988,59.28151801
59.21644511,68.01597341,59.25675386
59.19768439,67.96783877,59.26136364
59.21612350,68.00235849,59.24957118
59.27208405,68.05102916,59.29995712
59.27272727,68.10120069,59.34669811
59.27980274,68.10977702,59.33704974
59.30928388,68.14054460,59.36503002
59.38111063,68.26232847,59.40941252
59.47255575,68.36985420,59.51029160
59.56132075,68.53666381,59.57268439
59.62660806,68.66777444,59.66069897
59.69436106,68.82279160,59.75611063
59.78602058,68.95090051,59.78709262
59.87167667,69.06057033,59.90919811
59.94907804,69.19135935,59.96344340
60.03462693,69.32236278,60.03205403
60.11385077,69.47148370,60.08340480
60.15298027,69.61717410,60.17527873
60.24710549,69.74581904,60.22094768
60.33619211,69.89965695,60.34648370
60.41230703,70.04738422,60.45240137
60.48220412,70.16316467,60.51329331
60.47352058,70.19243139,60.45636792
60.13807890,69.86385077,60.26479417
59.59701973,69.15533877,59.80971269
59.33361921,68.60055746,59.47212693
59.26050600,68.31196398,59.35162950
59.17013293,68.16991852,59.29984991
59.14976415,68.12039022,59.29920669
59.16477273,68.04641938,59.24710549
59.18857204,68.08822899,59.27133362
59.26468696,68.21280017,59.37532161
59.29813465,68.24238851,59.38582762
59.27647942,68.27840909,59.34530446
59.32740137,68.31989708,59.41144940
59.39172384,68.37735849,59.50643225
59.45851201,68.52283448,59.59380360
59.57579331,68.64933533,59.68878645
59.65490995,68.78827187,59.71194254
59.72137650,68.92592196,59.79084477
59.81410806,69.06217839,59.86921098
59.82504288,69.16016295,59.92710120
59.92066895,69.31710978,60.00278731
60.01447256,69.47459262,60.10881218
60.05253002,69.56668096,60.13829331
60.16380789,69.72277015,60.24656947
60.18921527,69.82236278,60.28334048
60.25911235,70.00482419,60.31335763
60.33972985,70.09466123,60.42227702
60.48241852,70.29309605,60.52465695
60.52905232,70.38582762,60.58115352
60.32493568,70.15748285,60.39997856
59.79663379,69.56292882,59.95315180
59.42913808,68.96880360,59.66241424
59.34112350,68.66016295,59.52272727
59.30156518,68.51704545,59.48509863
59.28591338,68.42592196,59.41520154
59.29845626,68.39922813,59.44596913
59.32515009,68.44071612,59.48038165
59.36653087,68.52433533,59.49367496
59.40040738,68.55392367,59.51168525
59.41820326,68.56550172,59.50954117
59.43803602,68.61213551,59.55038593
59.47277015,68.65158662,59.56496569
59.51897513,68.75804031,59.61910377
59.61138508,68.85859777,59.70551029
59.70154374,68.98906518,59.78023156
59.81914666,69.13882933,59.89826329
59.85452401,69.23617067,59.90834048
59.90458834,69.36963979,60.04695540
59.96483705,69.49421098,60.09090909
60.00943396,69.59112350,60.08962264
60.08640652,69.73885077,60.15544597
60.15683962,69.86953259,60.27562178
60.25396655,70.01918954,60.36953259
60.33469125,70.13722127,60.46633791
60.38840051,70.24131647,60.45915523
60.36342196,70.27058319,60.47791595
59.96730274,69.85430961,60.16219983
59.50761149,69.21044168,59.77090480
59.27229846,68.69382504,59.49249571
59.22169811,68.48456261,59.41059177
59.16959691,68.36385077,59.31732419
59.16027015,68.30328045,59.29191681
59.16895369,68.25707547,59.33983705
59.20090051,68.34498285,59.36127787
59.29213122,68.45122213,59.45207976
59.30939108,68.47084048,59.45475986
59.29588336,68.48863636,59.47448542
59.33951544,68.52905232,59.52605060
59.41927530,68.59873499,59.56142796
59.50546741,68.76018439,59.66069897
59.58576329,68.89944254,59.72813036
59.67463551,69.02304889,59.78655660
59.77390652,69.15147942,59.91262864
59.81786021,69.29384648,59.94950686
59.87596484,69.42892367,60.02111921
59.99496141,69.57579331,60.17420669
60.03934391,69.69436106,60.17356346
60.11556604,69.84498285,60.30445969
60.17785163,69.97094768,60.34809177
60.26575901,70.06871784,60.43707118
60.39590480,70.24431818,60.53569897
60.45154374,70.37542882,60.55381647
60.53151801,70.50407376,60.56796741
60.45540309,70.50085763,60.59069468
59.97716552,69.94693396,60.14954974
59.46355060,69.23927959,59.75064322
59.22673671,68.72995283,59.50761149
59.18256861,68.47159091,59.36567324
59.15598199,68.28934391,59.29341767
59.07493568,68.14204545,59.22459262
59.03527015,68.12682247,59.22223413
59.07064751,68.14504717,59.27647942
59.18149657,68.25696827,59.37875214
59.19682676,68.30253002,59.37092624
59.22748714,68.32632933,59.38893654
59.25353774,68.38711407,59.39183105
59.33758576,68.47545026,59.46108491
59.38904374,68.56657376,59.52433533
59.49635506,68.70325901,59.61385077
59.59862779,68.88743568,59.70797599
59.68063894,68.98509863,59.80499571
59.74849914,69.12242710,59.88722127
59.84015866,69.25804031,59.96494425
59.89837050,69.40566038,60.01393654
59.95240137,69.57354202,60.03580617
60.07225557,69.70604631,60.20154374
60.15501715,69.85741852,60.28752144
60.23263293,69.99485420,60.40008576
60.32804460,70.13872213,60.42645798
60.41509434,70.27379931,60.51929674
60.50621784,70.48177530,60.61299314
60.60924099,70.63111063,60.75546741
60.59937822,70.67999571,60.69200257
60.22019726,70.29652659,60.36556604
59.69232419,69.57697256,59.91380789
59.44639794,69.02208405,59.62414237
59.41370069,68.79320326,59.50632504
59.35120069,68.64622642,59.46462264
59.33394082,68.59423242,59.45443825
59.32729417,68.55049314,59.49560463
59.40212264,68.57643654,59.57171955
59.48156089,68.66852487,59.59691252
59.52401372,68.71569468,59.61213551
59.52401372,68.75128645,59.63078902
59.53301887,68.76650943,59.65094340
59.57836621,68.84123070,59.69350343
59.67924528,68.96569468,59.74099485
59.78301887,69.08855060,59.86042024
59.85988422,69.25160806,59.91391509
59.95090051,69.38186106,59.99378216
60.03484134,69.53462693,60.07493568
60.09283877,69.68031732,60.18975129
60.15780446,69.81839623,60.22855918
60.24549743,69.94103774,60.34777015
60.32815180,70.08994425,60.39290309
60.34262436,70.23584906,60.47277015
60.44972127,70.34744854,60.45593911
60.55017153,70.48477702,60.61878216
60.64097341,70.64290309,60.63775729
60.75954117,70.80864065,60.76147084
60.80703259,70.90030017,60.84476844
60.53602058,70.64965695,60.61149228
60.05220840,70.06421527,60.17720840
59.75364494,69.54009434,59.95068611
59.68771441,69.25203688,59.77047599
59.68310463,69.21269297,59.76415094
59.68449828,69.17935249,59.80949828
59.74807033,69.20283019,59.80981990
59.80756861,69.28376930,59.88068182
59.87135506,69.38207547,59.99978559
59.88711407,69.39804889,59.94478988
59.92978130,69.46515866,59.98917238
59.93728559,69.47737993,59.98702830
59.99646226,69.57407804,60.03398370
60.09069468,69.70047170,60.13743568
60.17452830,69.82289880,60.25943396
60.25171527,69.97384220,60.32332762
60.35795455,70.11481561,60.35645369
60.40748285,70.24153087,60.45272298
60.51790309,70.39954974,60.58951544
60.57933105,70.53108919,60.57954545
60.63207547,70.64365352,60.70647513
60.74474700,70.80220840,60.77197684
60.81357204,70.93364065,60.80906947
60.89933533,71.05070755,60.85774014
61.01940395,71.19178816,61.01511578
61.01329331,71.38164666,60.98177530
61.03044597,71.39086621,61.02830189
60.64472556,70.90823328,60.66659520
60.19596913,70.30317324,60.29159520
59.98145369,69.85538165,60.11074185
59.95615352,69.66991852,60.02497856
59.97394940,69.61009863,60.04813465
59.97780875,69.58994425,60.05027873
59.99271012,69.59112350,60.06796741
60.07118353,69.70325901,60.11535163
60.11674528,69.77240566,60.14654803
60.13443396,69.80338765,60.23284734
60.14772727,69.82740137,60.22041166
60.17206261,69.85645369,60.21537307
60.23831475,69.93878645,60.25310892
60.32161235,70.07268439,60.38593482
60.34573328,70.16970412,60.37231990
60.47234134,70.30574614,60.53130360
60.56078473,70.41219983,60.60237993
60.63990137,70.57171955,60.67849485
60.75332333,70.71022727,60.74281732
60.78709262,70.85377358,60.80510292
60.89108062,70.95754717,60.86835334
60.95218696,71.09412521,60.94961407
61.04502573,71.21419383,61.01136364
61.10881218,71.31978988,61.08008148
61.20829760,71.49324614,61.18385506
61.26865352,71.65759005,61.26908233
61.36888937,71.77798027,61.35966981
61.35602487,71.80456690,61.33286878
60.89097341,71.31378645,60.94028731
60.41573756,70.65780446,60.57868782
60.24431818,70.18942967,60.34809177
60.19929245,70.01575901,60.30456690
60.18256861,69.88111063,60.24753431
60.15962693,69.82729417,60.21301458
60.20679674,69.82214837,60.18771441
60.22973842,69.84530446,60.30006432
60.26801029,69.91080617,60.30360206
60.27530017,69.91873928,60.35355918
60.29491852,69.96430103,60.36395798
60.32515009,69.98252573,60.36545883
60.37081904,70.04534734,60.43942967
60.46548027,70.15909091,60.50814751
60.51404374,70.25439537,60.50053602
60.61749571,70.41102058,60.64236707
60.70057890,70.53548456,60.71301458
60.76243568,70.63957976,60.76886792
60.84701973,70.80349485,60.84358919
60.92088336,70.91938250,60.84991424
60.99689108,71.03762864,60.94543310
61.12489280,71.20100772,61.07793739
61.19521870,71.31828902,61.08201115
61.24914237,71.43567753,61.19532590
61.34444683,71.59487564,61.26768868
61.43213979,71.76897513,61.40962693
61.51854631,71.90405232,61.45958405
61.59412521,72.03987993,61.53066038
61.53473413,72.03387650,61.51993997
61.13421955,71.50257290,61.08683533
60.73745712,70.89204545,60.72480703
60.56775300,70.47062607,60.57804460
60.54556175,70.31164237,60.55413808
60.56035592,70.27283448,60.54599057
60.55167238,70.24549743,60.48284734
60.58972985,70.24539022,60.53719983
60.65716123,70.30510292,60.59026587
60.68857204,70.37596484,60.63990137
60.67838765,70.36942539,60.64708405
60.67892367,70.35516724,60.66241424
60.71172813,70.38454117,60.62939537
60.78505575,70.44607633,60.69800600
60.87274871,70.58672813,60.76168525
60.99731990,70.71172813,60.92227702
61.07858062,70.83479846,60.93771441
61.16005575,70.98359777,61.03505575
61.21365780,71.09701973,61.10002144
61.31507290,71.22566467,61.19950686
61.35087907,71.31743139,61.24153087
61.46162093,71.46569468,61.30445969
61.50964837,71.55789022,61.34948542
61.58855060,71.69875643,61.41895369
61.71054889,71.86299314,61.53537736
61.78023156,71.98777873,61.62500000
61.87714408,72.14901372,61.68546312
61.75482419,72.06185678,61.62960978
61.42334906,71.61760292,61.32300600
61.10634648,71.05295883,61.03752144
61.02369211,70.71644511,60.86460120
61.02004717,70.62918096,60.84830617
61.02551458,70.58490566,60.80638937
61.05242281,70.59230274,60.87832333
61.09123070,70.65555317,60.90984134
61.14150943,70.73284734,60.92152659
61.18074614,70.80274443,61.00643225
61.18010292,70.81453688,61.01436535
61.20497427,70.82139794,61.02208405
61.25482419,70.90062178,61.05906947
61.31957547,71.00782590,61.12725129
61.43246141,71.11363636,61.20990566
61.48091767,71.22362779,61.26801029
61.59433962,71.38765009,61.39279588
61.65984134,71.47930961,61.42506432
61.73960120,71.63261149,61.55006432
61.81850343,71.76318611,61.53484134
61.88346913,71.86738851,61.60109348
61.98563465,71.99871355,61.73992281
62.03162521,72.12660806,61.77026158
62.15051458,72.27379931,61.88850772
62.24506861,72.38636364,61.98692110
62.30038593,72.51479417,61.99292453
62.35463122,72.63078902,62.06432247
62.09852058,72.32665094,61.82515009
61.69618353,71.70218696,61.45283019
61.47566467,71.17099057,61.19286021
61.38529160,70.88550600,61.04652659
61.32407804,70.74710549,61.01533019
61.32493568,70.72459262,61.09401801
61.28162521,70.62660806,61.01447256
61.32482847,70.66595197,61.06024871
61.36942539,70.71376501,61.07804460
61.39408233,70.74335334,61.10891938
61.42720840,70.76876072,61.15555317
61.43535592,70.79577616,61.18492710
61.47459262,70.83394082,61.18063894
61.55971269,70.93192539,61.27412093
61.63529160,71.05403087,61.34862779
61.71247856,71.17259863,61.38614923
61.79599057,71.29256003,61.53119640
61.87800172,71.42688679,61.53066038
61.90801887,71.52294168,61.57997427
62.01618782,71.66970412,61.71944683
62.07836621,71.79384648,61.71408662
62.15973413,71.95690395,61.82804460
62.23852916,72.08329760,61.89118782
62.30531732,72.17903087,61.92409949
62.37832333,72.30027873,61.99474700
62.47866638,72.46322899,62.08587050
62.53709262,72.55853345,62.15651801
62.54491852,72.59701973,62.15190823
62.16713122,72.15748285,61.81893225
61.78805746,71.50611063,61.47094768
61.61685249,71.01929674,61.24699828
61.52840909,70.78098199,61.15469554
61.52508576,70.67560034,61.14000858
61.47770154,70.57761578,61.07697256
61.47791595,70.52851630,61.10205832
61.51200686,70.57718696,61.12478559
61.56646655,70.64536878,61.20626072
61.57311321,70.68674957,61.21183533
61.60924099,70.69671955,61.21708834
61.65040738,70.71687393,61.23102487
61.68310463,70.75943396,61.20197256
61.81185678,70.92206261,61.39418954
61.86513722,71.05081475,61.38143225
61.90040738,71.21280017,61.46687393
62.00021441,71.32246998,61.57954545
62.09959262,71.45979846,61.62360635
62.17592196,71.56807461,61.66691681
62.26886792,71.69339623,61.79288165
62.31603774,71.82182676,61.85055746
62.38411235,71.96730274,61.93428388
62.45411664,72.08233276,62.00407376
62.56014151,72.24667667,62.03012436
62.59755575,72.35398799,62.07697256
62.70647513,72.49699828,62.24506861
62.74088765,72.59659091,62.23509863
62.71237136,72.64611921,62.23574185
62.38668525,72.25611063,62.00975557
62.06475129,71.61685249,61.62950257
61.87296312,71.21344340,61.37682247
61.83115352,70.99989280,61.37189108
61.81743139,70.94950686,61.32750858
61.81828902,70.88775729,61.32858062
61.81764580,70.89204545,61.35902659
61.88432676,70.96837479,61.42570755
61.93460549,70.98606346,61.39150943
61.92538593,71.00557461,61.44082333
61.91745283,70.99635506,61.40437393
61.93900086,71.02733705,61.43557033
62.00203688,71.09959262,61.42699400
62.06893225,71.21665952,61.47266295
62.12585763,71.30896226,61.54845626
62.17624357,71.43138937,61.63357633
62.24742710,71.53301887,61.73113208
62.30949828,71.65726844,61.74603345
62.33897942,71.79223842,61.81518010
62.42667238,71.90094340,61.88743568
62.49238851,72.00332333,61.94436106
62.57847341,72.11427959,62.02980274
62.64654803,72.25289451,62.11352916
62.72330617,72.37660806,62.19050172
62.75879074,72.48349057,62.20947684
62.78344768,72.53752144,62.28494854
62.54363208,72.27755146,62.00225129
62.19993568,71.73895798,61.73016724
61.97845197,71.28419811,61.47759434
61.94575472,71.08297599,61.42517153
61.95561750,71.07011149,61.40994854
61.93664237,71.07129074,61.42270583
61.96151372,71.07279160,61.44393225
62.00857633,71.14601201,61.49485420
62.06303602,71.18224700,61.54545455
62.05060034,71.22041166,61.52229846
62.05799743,71.23402659,61.52390652
62.06850343,71.25332333,61.56057033
62.12896655,71.36181389,61.60280875
62.19189537,71.44446827,61.68439108
62.30799743,71.59744854,61.75804031
62.34305317,71.71762436,61.79331046
62.40019297,71.83801458,61.86524443
62.49924957,71.97802316,61.97373499
62.53066038,72.04802744,61.99249571
62.58126072,72.17538593,62.04845626
62.65426672,72.29813465,62.15769726
62.68567753,72.45754717,62.13957976
62.75289451,72.54041595,62.18750000
62.77315609,72.67131218,62.27765866
62.88228988,72.82868782,62.35355918
62.91723842,72.89794168,62.42538593
62.68138937,72.65222985,62.17774443
62.27165523,72.05360206,61.83018868
62.00418096,71.54041595,61.57086192
61.90437393,71.27337050,61.38957976
61.83426244,71.16144940,61.38572041
61.80403087,71.07032590,61.33104631
61.77197684,71.00396655,61.34594768
61.78848628,71.01640223,61.34809177
61.82707976,71.03226844,61.42892367
61.83822899,71.04813465,61.39719125
61.82600772,71.03891509,61.39590480
61.83490566,71.07332762,61.42066895
61.88743568,71.13164666,61.41059177
61.91209262,71.16295026,61.49035163
61.94564751,71.25632504,61.52047599
62.01340051,71.35795455,61.57515009
62.06378645,71.45701115,61.56421527
62.10913379,71.57632933,61.64794168
62.17860206,71.69789880,61.71912521
62.29223842,71.84948542,61.81282161
62.30199400,71.95743997,61.85645369
62.34176672,72.05896226,61.91680961
62.40437393,72.14901372,61.94661235
62.45004288,72.24592624,62.02294168
62.52733705,72.37896655,62.05821184
62.58951544,72.49753431,62.16241424
62.62424957,72.60045026,62.16219983
62.47641509,72.44832762,62.08040309
62.00889794,71.87167667,61.67613636
61.76286449,71.32611492,61.33619211
61.61224271,71.02262007,61.23874357
61.54534734,70.86031304,61.15340909
61.48284734,70.75428816,61.10784734
61.44350343,70.65576758,61.10173671
61.43181818,70.64772727,61.11963979
61.48552744,70.69243139,61.12274871
61.48638508,70.71580189,61.17227702
61.48874357,70.70786878,61.17420669
61.48981561,70.74689108,61.13454117
61.52133362,70.77583619,61.17141938
61.55949828,70.85152230,61.22780875
61.63732847,70.95057890,61.24067324
61.65126501,71.00246569,61.26511578
61.71290738,71.11749571,61.37650086
61.83179674,71.26768868,61.45808319
61.87542882,71.37628645,61.49313894
61.92281304,71.50836192,61.56389365
61.95883362,71.60827616,61.60184391
61.98638508,71.67849485,61.66798885
62.06528731,71.77133362,61.77476415
62.12457118,71.86728130,61.77744425
62.18910806,72.01908233,61.82611492
62.22126930,72.10270154,61.84626930
62.27047599,72.23810034,61.90105060
62.29738422,72.32911664,61.97469983
62.07868782,72.07783019,61.76029160
61.69543310,71.48531304,61.44993568
61.44135935,70.99303173,61.18171098
61.33994425,70.78677101,60.99774871
61.28066038,70.68460549,61.02401372
61.27229846,70.64751286,61.04245283
61.25182247,70.58672813,61.01533019
61.28870069,70.61417238,61.05585334
61.31260720,70.66102058,61.04909949
61.28194683,70.64193825,61.01372213
61.29974271,70.63657804,61.01050600
61.30821184,70.63711407,61.02219125
61.31057033,70.67570755,61.03012436
61.34219554,70.71162093,61.07568611
61.37660806,70.77819468,61.13754288
61.41680961,70.87006861,61.15222985
61.48327616,70.96376501,61.19382504
61.59058748,71.05735420,61.28205403
61.56292882,71.13925815,61.24817753
61.59240995,71.19318182,61.31432247
61.65951973,71.31496569,61.37885935
61.68932247,71.39365352,61.46912521
61.74163808,71.51586621,61.50428816
61.82032590,71.63593482,61.60570326
61.88421955,71.74206690,61.65222985
61.87800172,71.77272727,61.62907376
61.59487564,71.43835763,61.41327187
61.22963122,70.88228988,61.07054031
60.98799314,70.41595197,60.80874786
60.90233705,70.26082762,60.69907804
60.85430961,70.14547599,60.69629074
60.82579331,70.08394082,60.61224271
60.79995712,70.04095197,60.64451115
60.82375643,70.09605489,60.65351630
60.88915094,70.17216981,60.75900515
60.89172384,70.19018010,60.72963122
60.86492281,70.17967410,60.67560034
60.86117067,70.16284305,60.71022727
60.90469554,70.22437822,60.70958405
60.93814322,70.30349485,60.80328045
61.02390652,70.42613636,60.87210549
61.15265866,70.58126072,60.96097770
61.15930532,70.64429674,61.01843911
61.24335334,70.77208405,61.04802744
61.24539022,70.85345197,61.08051029
61.33018868,70.97791595,61.12349914
61.37221269,71.04545455,61.23456261
61.43031732,71.15866209,61.27251286
61.47641509,71.28494854,61.35270154
61.57429245,71.40019297,61.43964408
61.61213551,71.52551458,61.49828473
61.67870926,71.64847770,61.57214837
61.63389794,71.65147942,61.51104202
61.27744425,71.17066895,61.19746998
60.87231990,70.56442967,60.76961835
60.68771441,70.16348628,60.59787736
60.63143225,69.96655232,60.54674099
60.58694254,69.87296312,60.49281732
60.54663379,69.78719983,60.46601630
60.54448971,69.76876072,60.44393225
60.60913379,69.82547170,60.48606346
60.63089623,69.86674528,60.48960120
60.60484563,69.86620926,60.48027444
60.58972985,69.88239708,60.51039880
60.59648370,69.88550600,60.47384220
60.66863208,69.95529588,60.53784305
60.69843482,70.06421527,60.58672813
60.77701544,70.15909091,60.66723842
60.89140223,70.31400086,60.71258576
60.95926244,70.43160377,60.82890223
61.04170240,70.54942110,60.90448113
61.07911664,70.66680961,60.95111492
61.14354631,70.76918954,61.00589623
61.18374786,70.88143225,61.03301887
61.21590909,70.99849914,61.16359348
61.29073756,71.10355918,61.18975129
61.39697684,71.25032161,61.32643654
61.46580189,71.39440395,61.34230274
61.46912521,71.43524871,61.38850772
61.20636792,71.18171098,61.09187393
60.78891509,70.55585334,60.76125643
60.55746141,70.06539451,60.52186964
60.49292453,69.83190395,60.45047170
60.44864923,69.77197684,60.42056175
60.43396226,69.68782161,60.38143225
60.43213979,69.67313465,60.34937822
60.48166810,69.70979846,60.43428388
60.49967839,69.74796312,60.40812607
60.50600343,69.78580617,60.41359348
60.48584906,69.77744425,60.36406518
60.49474700,69.77840909,60.39804889
60.54599057,69.86138508,60.44457547
60.67174099,69.99313894,60.61556604
60.73038165,70.11888937,60.65555317
60.79609777,70.24892796,60.70540309
60.83822899,70.34980703,60.76725986
60.91756003,70.46515866,60.77948113
60.94596913,70.58919383,60.81775300
60.98531304,70.65855489,60.87703688
61.05864065,70.75032161,60.98617067
61.13861492,70.89590480,61.08972985
61.20036449,71.01683105,61.04792024
61.23927959,71.11277873,61.08297599
61.27219125,71.19328902,61.12939537
61.08093911,71.01082762,61.01640223
60.65276587,70.36052744,60.60688250
60.34969983,69.79245283,60.29331046
60.23531304,69.51425815,60.15105060
60.17045455,69.40844768,60.11192110
60.14676244,69.27583619,60.08029588
60.12253431,69.25525300,60.04770583
60.14611921,69.28698542,60.08415523
60.23509863,69.35152230,60.20872642
60.23799314,69.40844768,60.19125214
60.25664666,69.42967410,60.20754717
60.28055317,69.47995283,60.22330617
60.33093911,69.53484134,60.26404374
60.39022298,69.65630360,60.27036878
60.47866638,69.78891509,60.38432676
60.56357204,69.89804889,60.44886364
60.63186106,69.99721269,60.54095197
60.70497427,70.16873928,60.61813894
60.69918525,70.23434820,60.63421955
60.78516295,70.37478559,60.71312178
60.82493568,70.47566467,60.79749142
60.89772727,70.62178388,60.85141509
60.98102487,70.77304889,60.94371784
61.04320326,70.86374357,60.95851201
61.00300172,70.94382504,60.99528302
60.75353774,70.60666810,60.70551029
60.34519726,69.96655232,60.32568611
60.14451115,69.50728988,60.08083190
60.03827187,69.28419811,60.00804031
59.99828473,69.17431389,59.98027444
59.95776158,69.12564322,59.86899657
59.98274014,69.11760292,59.89033019
60.01918954,69.17570755,59.99646226
60.09433962,69.26951115,60.04202401
60.10034305,69.31239280,60.04030875
60.12821612,69.32418525,60.06582333
60.13636364,69.38614923,60.09584048
60.19339623,69.46204974,60.11556604
60.30649657,69.58737136,60.28484134
60.34594768,69.71194254,60.27133362
60.42935249,69.84809177,60.36717410
60.50182247,70.00568182,60.46044168
60.53001715,70.09326758,60.45776158
60.57429245,70.24281732,60.56099914
60.61653087,70.34444683,60.63175386
60.70068611,70.50150086,60.71891081
60.78773585,70.61728130,60.80939108
60.85656089,70.75214408,60.82632933
60.95433105,70.88271870,60.91680961
60.89997856,70.88261149,60.86288593
60.61106346,70.56475129,60.56582333
60.22416381,69.97159091,60.18599914
60.02304889,69.53977273,60.03634220
59.92624357,69.35291595,59.89772727
59.92452830,69.28409091,59.93910806
59.84969983,69.20433105,59.90673242
59.87617925,69.23123928,59.91434391
59.92635077,69.31378645,59.95529588
59.99120926,69.41831046,60.00643225
60.03505575,69.47952401,60.02733705
60.05596055,69.51286449,60.07182676
60.11835334,69.56732419,60.15887650
60.15887650,69.70175815,60.17581475
60.22491424,69.82890223,60.24678388
60.34240995,69.96355060,60.31475129
60.37735849,70.07075472,60.36771012
60.43106775,70.19307461,60.48424099
60.52819468,70.34423242,60.57021870
60.58715695,70.46966123,60.58265437
60.64987136,70.62221269,60.63100343
60.73681389,70.71901801,60.71387221
60.80199400,70.83072470,60.79684820
60.88346913,70.96044168,60.91155660
60.95733276,71.08383362,60.92860206
61.03966552,71.22555746,61.06367925
61.09455403,71.34884220,61.08361921
60.93599914,71.26833190,60.99646226
60.49453259,70.73938679,60.52733705
60.14493997,70.18867925,60.23927959
60.02980274,69.91552316,60.16273585
60.02658662,69.85034305,60.20840480
60.01222127,69.82418525,60.10377358
60.00943396,69.80596055,60.11342196
60.05317324,69.85291595,60.15094340
60.13143225,69.91144940,60.27401372
60.16530875,69.93975129,60.28923671
60.09305317,69.94339623,60.23006003
60.12832333,69.95443825,60.26618782
60.18096055,70.01758148,60.25428816
60.20207976,70.09337479,60.29448971
60.29856346,70.21322899,60.37810892
60.35999142,70.30253002,60.42302744
60.43117496,70.43546312,60.50085763
60.46976844,70.54438250,60.50921955
60.56507290,70.66691681,60.65405232
60.60087907,70.74238851,60.66713122
60.70883362,70.85398799,60.76672384
60.74635506,70.95969125,60.78580617
60.77937393,71.07054031,60.83126072
60.84916381,71.22094768,60.94607633
60.93031732,71.31689537,60.99549743
60.80992710,71.23552744,60.92720840
60.39590480,70.69564751,60.49110206
60.04491852,70.16648799,60.18985849
59.91520154,69.91412950,60.09230274
59.90233705,69.84959262,60.13604202
59.89697684,69.81421527,60.09680532
59.91906089,69.81571612,60.07922384
59.95743997,69.86695969,60.11159949
60.01736707,69.95733276,60.14901372
60.02508576,69.97727273,60.20325901
60.02701544,70.00385935,60.17924528
60.03527015,70.01147084,60.17420669
60.07740137,70.05939108,60.21505146
60.16584477,70.17141938,60.32021870
60.22813036,70.26822470,60.37242710
60.27465695,70.37457118,60.40823328
60.31893225,70.49217410,60.41691681
60.37971698,70.57911664,60.49506861
60.47673671,70.71901801,60.58029588
60.51801029,70.79845626,60.63314751
60.60227273,70.89944254,60.66423671
60.68310463,71.03280446,60.83276158
60.72984563,71.15608919,60.86084906
60.82675815,71.27101201,60.90523156
60.88325472,71.40190823,60.94114494
60.89794168,71.46762436,61.02465695
60.63207547,71.19746998,60.79180961
60.15180103,70.53087479,60.35849057
59.84884220,69.94982847,60.06925386
59.69296741,69.67152659,59.94961407
59.66144940,69.58704974,59.92024014
59.59519726,69.44854202,59.82246998
59.56132075,69.38143225,59.80231561
59.58340480,69.41809605,59.82911664
59.63368353,69.46816038,59.84444683
59.65801887,69.49399657,59.87778731
59.66155660,69.49689108,59.92399228
59.66745283,69.52208405,59.85999142
59.69832762,69.54824185,59.91187822
59.78312607,69.63947256,60.04491852
59.87360635,69.76211407,60.08479846
59.93878645,69.84680532,60.14847770
60.01447256,69.99388937,60.26382933
60.06882504,70.08512007,60.30445969
60.15094340,70.21805317,60.33211835
60.18524871,70.29824185,60.38400515
60.27412093,70.42399228,60.46537307
60.31164237,70.56571612,60.42828045
60.43428388,70.68514151,60.59573328
60.46365780,70.76168525,60.64011578
60.54813465,70.89933533,60.71001286
60.62500000,71.02851630,60.75514580
60.67677959,71.12510720,60.82171955
60.60548885,71.08747856,60.75128645
60.10388079,70.49453259,60.38089623
59.69564751,69.83179674,59.90255146
59.46194254,69.37960978,59.75096484
59.40437393,69.16252144,59.60806175
59.38078902,69.09026587,59.61342196
59.33404803,69.02658662,59.59562607
59.35141509,68.98949400,59.65823328
59.41584477,69.04706261,59.62189108
59.45079331,69.08865780,59.65941252
59.45068611,69.11663808,59.66809605
59.47770154,69.12821612,59.68674957
59.48906518,69.14879931,59.70240137
59.56421527,69.23359777,59.74839194
59.64397513,69.34573328,59.84294597
59.71172813,69.46601630,59.89783448
59.77680103,69.54288165,59.95497427
59.86181389,69.66927530,60.01854631
59.93031732,69.79545455,60.11771012
59.96108491,69.89976415,60.13604202
60.07804460,70.03559177,60.22684391
60.17624357,70.17538593,60.30467410
60.20368782,70.28559177,60.35420240
60.28291166,70.37382075,60.38089623
60.36438679,70.51683105,60.48488422
60.39268868,70.64290309,60.53269726
60.48166810,70.76082762,60.60902659
60.58426244,70.91295026,60.65759005
60.53966552,70.90180103,60.67817324
60.06582333,70.36277873,60.27637221
59.60237993,69.61846055,59.84894940
59.44371784,69.23466981,59.62853774
59.42581475,69.06217839,59.57118353
59.46172813,69.03548456,59.60388079
59.45711835,69.01650943,59.67066895
59.48370497,69.03323328,59.63893654
59.53719983,69.08051029,59.70872642
59.53848628,69.10516724,59.69671955
59.53076758,69.11117067,59.76125643
59.53548456,69.11695969,59.69328902
59.55220840,69.10838336,59.71344340
59.58683533,69.17710120,59.73563465
59.68203259,69.33233276,59.83083190
59.76136364,69.46376501,59.91895369
59.84240995,69.58061750,60.03516295
59.92141938,69.67549314,60.09551887
59.99742710,69.80853345,60.13829331
60.02744425,69.90287307,60.18867925
60.09112350,70.00085763,60.21548027
60.16080617,70.09069468,60.30488851
60.21955403,70.18374786,60.36299314
60.27765866,70.29481132,60.39022298
60.33222556,70.42077616,60.43471269
60.37521441,70.48949400,60.46933962
60.15448113,70.25525300,60.29170240
59.67753002,69.59155232,59.83254717
59.38014580,69.00000000,59.57740137
59.28259005,68.70561750,59.45690395
59.28591338,68.60816895,59.46215695
59.28548456,68.55864065,59.42056175
59.29502573,68.57718696,59.41745283
59.36867496,68.64547599,59.48981561
59.42099057,68.71344340,59.56957547
59.42602916,68.74699828,59.51050600
59.41080617,68.75235849,59.53301887
59.42216981,68.75750429,59.51972556
59.47180532,68.83694254,59.54920669
59.53280446,68.96955403,59.67903087
59.63153945,69.11567324,59.77047599
59.69972127,69.22137650,59.84015866
59.78923671,69.34605489,59.88036021
59.85859777,69.50203688,59.94264580
59.94436106,69.64311750,60.02776587
59.99228130,69.77079760,60.15008576
60.05821184,69.85795455,60.16541595
60.11728130,69.97920240,60.21912521
60.19350343,70.10002144,60.31099914
60.29524014,70.26865352,60.38143225
60.36771012,70.40608919,60.40287307
60.32643654,70.38518439,60.39204545
59.86749571,69.82933105,59.99421098
59.43374786,69.10291595,59.61427959
59.28334048,68.65512436,59.36181389
59.19210978,68.43717839,59.27830189
59.13904374,68.31314322,59.22587907
59.09090909,68.21397942,59.17731561
59.09487564,68.20443825,59.19972127
59.10066467,68.28098199,59.21044168
59.16005575,68.33008148,59.25246569
59.18117496,68.35205832,59.29824185
59.18546312,68.37392796,59.28044597
59.20358062,68.39075901,59.31764580
59.28634220,68.46515866,59.41134220
59.35934820,68.60570326,59.39408233
59.47148370,68.75771870,59.57590051
59.53987993,68.88636364,59.67452830
59.61588765,69.00932676,59.69264580
59.67967410,69.15673242,59.81153516
59.73702830,69.28677101,59.79706261
59.80692539,69.41927530,59.93213979
59.86117067,69.57643654,59.95658233
59.99281732,69.74496141,60.11631647
60.04867067,69.85313036,60.20090051
60.06378645,69.94543310,60.18878645
59.85698971,69.68396226,59.99228130
59.38304031,69.01168525,59.58501286
59.09637650,68.42699400,59.21751715
58.92892367,68.11202830,59.06335763
58.89751286,67.98777873,59.01500858
58.88400515,67.88936535,59.00707547
58.87114065,67.87778731,59.02615780
58.91541595,67.91798885,59.09487564
58.99571184,67.99957118,59.11406518
59.02873070,68.06325043,59.13657804
59.03902230,68.09155232,59.14279588
59.05306604,68.12317753,59.17270583
59.09037307,68.19114494,59.23295455
59.20743997,68.35881218,59.34616209
59.26007719,68.50407376,59.41359348
59.36406518,68.68010292,59.49099485
59.46247856,68.79502573,59.59476844
59.53559177,68.93289022,59.63807890
59.59208834,69.07536449,59.74303173
59.65566038,69.20218696,59.81796741
59.71355060,69.34476844,59.89236707
59.80360206,69.46097770,59.88164666
59.92163379,69.65126501,60.03055317
59.94103774,69.76951115,60.07740137
60.10891938,69.98606346,60.20347341
59.99024443,69.88647084,60.10688250
59.50943396,69.25257290,59.68138937
59.08715695,68.59058748,59.28955832
58.97491424,68.18653516,59.11406518
58.91155660,68.00739708,59.05027873
58.90212264,67.96601630,59.04963551
58.87853774,67.93771441,59.04577616
58.92924528,67.95433105,59.06132075
58.99603345,68.05885506,59.17056175
59.03023156,68.13186106,59.18803602
59.04909949,68.15201544,59.16059177
59.08533448,68.20497427,59.20154374
59.12039022,68.26811750,59.22759434
59.22523585,68.41884648,59.31614494
59.35634648,68.58726415,59.43910806
59.40726844,68.71601630,59.49860635
59.49067324,68.89912093,59.60045026
59.59766295,69.05199400,59.73488422
59.66670240,69.20015009,59.79020154
59.74131647,69.33608491,59.89033019
59.74271012,69.45304460,59.92560034
59.82675815,69.59969983,59.96869640
59.91348628,69.71708834,60.06335763
60.01640223,69.85430961,60.12875214
60.07354202,70.00900515,60.18632075
60.17249142,70.14290309,60.27326329
60.20733276,70.22019726,60.28301887
59.87746569,69.87746569,60.08286878
59.35731132,69.11867496,59.57193396
59.10463122,68.53494854,59.26951115
59.02722985,68.27058319,59.16895369
58.99656947,68.21762436,59.19039451
59.01243568,68.19039451,59.15994854
59.03259005,68.22277015,59.22405660
59.09466123,68.28248285,59.25954117
59.14193825,68.37049743,59.28687822
59.17420669,68.38454117,59.33608491
59.16027015,68.40276587,59.31593053
59.15212264,68.38990137,59.25268010
59.20368782,68.45175815,59.37371355
59.28891509,68.55263722,59.45100772
59.37135506,68.71140652,59.52058319
59.42592196,68.83436964,59.56014151
59.54524014,69.04652659,59.74228130
59.59712693,69.14279588,59.79888508
59.70325901,69.28666381,59.86492281
59.73306175,69.39451115,59.89108062
59.80799743,69.50482419,59.90683962
59.90437393,69.66445111,59.97148370
59.96923242,69.79942110,60.14890652
60.05596055,69.93203259,60.17602916
60.01104202,69.98274014,60.19564751
59.60966981,69.50460978,59.77562178
59.19350343,68.77262007,59.40426672
58.97598628,68.26265009,59.16487993
58.90791166,68.07450686,59.06099914
58.93428388,68.03998714,59.07772298
58.91659520,68.03494854,59.10205832
58.97984563,68.08704974,59.15587479
59.08222556,68.22502144,59.27626501
59.13111063,68.28462693,59.27690823
59.14719125,68.31485849,59.29877787
59.15362350,68.33908662,59.32107633
59.17420669,68.37467839,59.33737136
59.28548456,68.50182247,59.42227702
59.35559605,68.66198542,59.46387221
59.44779160,68.81335763,59.59444683
59.51307890,68.94210978,59.64665523
59.56646655,69.10034305,59.72362779
59.63700686,69.27572899,59.81303602
59.70186535,69.36567324,59.88947256
59.76404374,69.49024443,59.97845197
59.82064751,69.60966981,60.02497856
59.91573756,69.76500858,60.08855060
60.03323328,69.91380789,60.22341338
60.07804460,70.04180961,60.27572899
60.08887221,70.06936106,60.22180532
59.65780446,69.56753859,59.84112350
59.12928816,68.75857633,59.40201544
58.87328473,68.14515437,58.98820755
58.73070326,67.80853345,58.90866209
58.68481990,67.67753002,58.86685249
58.62296312,67.55756861,58.79298885
58.64772727,67.51951115,58.87156947
58.71215695,67.58801458,58.88282590
58.77733705,67.66155660,58.92377787
58.76511578,67.71644511,58.94007290
58.75568182,67.70765437,58.96129931
58.76254288,67.75203688,58.91605918
58.84165952,67.83072470,59.02733705
58.95368782,67.99378216,59.08297599
59.01908233,68.11985420,59.21590909
59.10634648,68.28709262,59.32697256
59.21430103,68.41155660,59.35495283
59.32289880,68.58297599,59.44425386
59.38486278,68.70840480,59.51522298
59.45583190,68.85634648,59.66445111
59.49185249,68.96140652,59.72341338
59.59144511,69.10323756,59.72952401
59.66434391,69.23188250,59.83458405
59.74689108,69.35945540,59.89183105
59.82750858,69.53548456,59.94071612
59.89333190,69.65769726,60.06357204
59.77915952,69.53280446,59.92088336
59.21805317,68.82611492,59.43696398
58.81914666,68.03355489,58.99367496
58.60430961,67.54213122,58.74003002
58.52883791,67.30778302,58.70979846
58.45315180,67.17270583,58.57922384
58.41552316,67.09584048,58.54952830
58.44286021,67.12703688,58.58436964
58.54524014,67.21140652,58.70947684
58.58018868,67.31239280,58.69275300
58.57171955,67.35087907,58.73081046
58.61942539,67.37221269,58.71955403
58.67066895,67.44746998,58.80917667
58.73391938,67.54695540,58.87950257
58.86299314,67.75493139,59.01179245
58.93975129,67.91766724,59.06196398
59.03130360,68.04331046,59.18889365
59.15523156,68.20926244,59.28194683
59.26061321,68.38518439,59.41305746
59.36363636,68.53473413,59.43932247
59.43771441,68.67184820,59.49882075
59.50653945,68.82386364,59.57407804
59.56807461,68.95894082,59.62553602
59.61170669,69.05253002,59.63271870
59.70851201,69.23595626,59.79256003
59.78312607,69.37124786,59.84744854
59.84155232,69.52294168,59.92409949
59.84584048,69.56325043,59.94232419
59.51189966,69.15619640,59.66584477
59.04888508,68.38850772,59.21355060
58.81689537,67.83147513,58.95819039
58.74271012,67.61813894,58.85591767
58.74056604,67.50921955,58.82268439
58.71537307,67.45443825,58.78912950
58.74624786,67.47180532,58.78805746
58.81646655,67.58619211,58.89708405
58.83544168,67.65683962,58.90533877
58.83308319,67.67163379,58.96451544
58.83447684,67.68524871,58.94725557
58.85463122,67.72191252,58.93267581
58.97212693,67.84283877,59.06410806
59.02412093,67.96665952,59.09852058
59.15480274,68.10527444,59.24313894
59.22009005,68.24453259,59.30135077
59.33029588,68.38990137,59.38625643
59.38314751,68.59348199,59.46590909
59.45218696,68.68932247,59.51457976
59.51168525,68.78162521,59.54213122
59.60227273,68.93053173,59.62993139
59.61460120,69.01082762,59.59316038
59.69007290,69.18428388,59.76704545
59.76554460,69.33694254,59.84273156
59.83404803,69.47705832,59.88336192
59.83297599,69.51650943,59.94425386
59.56367925,69.13636364,59.67109777
59.14762007,68.49774871,59.22909520
58.91359348,68.04352487,59.01265009
58.86149228,67.86106346,58.98606346
58.86406518,67.83554889,59.00150086
58.85205832,67.80445969,58.94939966
58.92388508,67.86020583,59.01972556
58.98006003,67.99506861,59.06410806
59.00836192,68.06668096,59.14601201
59.02733705,68.08394082,59.15855489
59.02433533,68.13068182,59.15855489
59.08201115,68.20015009,59.11738851
59.14397513,68.26983276,59.25439537
59.26490137,68.46644511,59.39311750
59.30456690,68.61524443,59.44822041
59.42945969,68.77530017,59.57311321
59.48402659,68.88968696,59.56164237
59.51018439,69.03527015,59.57836621
59.54695540,69.19060892,59.67560034
59.63807890,69.28366209,59.74614065
59.69103774,69.41638079,59.83855060
59.71933962,69.52765866,59.85184391
59.81614494,69.65533877,59.98531304
59.90994854,69.80017153,60.01822470
60.00225129,69.95829760,60.11202830
59.92034734,69.92999571,60.06678816
59.50921955,69.36792453,59.69125214
59.10280875,68.72866638,59.23295455
58.94414666,68.32000429,59.12660806
58.83619211,68.15072899,59.01050600
58.81110635,68.05145798,59.02401372
58.78183962,67.97416381,59.00160806
58.80413808,67.99367496,58.96472985
58.86374357,68.07064751,59.01232847
58.87253431,68.14719125,59.05713979
58.87757290,68.17538593,59.06174957
58.85162950,68.16123499,59.04652659
58.87135506,68.22298456,59.06753859
59.00857633,68.37843053,59.26307890
59.02755146,68.44650515,59.28226844
59.09026587,68.57289880,59.29845626
59.16906089,68.73081046,59.37810892
59.19864923,68.88604202,59.49731990
59.31903945,69.03323328,59.54974271
59.40641081,69.17077616,59.67999571
59.45926244,69.28537736,59.65137221
59.54470412,69.40233705,59.76661664
59.61749571,69.52058319,59.83211835
59.68857204,69.68063894,59.89976415
59.73466981,69.80049314,59.97930961
59.87617925,69.97116209,60.08972985
59.91273585,70.06089194,60.13915094
59.97791595,70.20132933,60.16788165
59.81164237,70.07493568,60.01768868
59.34669811,69.44489708,59.62049743
58.97695111,68.82536449,59.29513293
58.82129074,68.48874357,59.15426672
58.75900515,68.34283877,59.07418525
58.73799314,68.24378216,59.06024871
58.69446827,68.14472556,58.95733276
58.69618353,68.16402230,58.94425386
58.80177959,68.30649657,59.13089623
58.79513293,68.35023585,59.16434391
58.82300600,68.40147942,59.15040738
58.84894940,68.43192539,59.15555317
58.86760292,68.48788593,59.18578473
58.94596913,68.58319039,59.26972556
59.00943396,68.71226415,59.36020583
59.07643654,68.82279160,59.39161664
59.16573756,68.96912521,59.49892796
59.23874357,69.07150515,59.57836621
59.32300600,69.22802316,59.65340909
59.39193825,69.33297599,59.65780446
59.47137650,69.46816038,59.76811750
59.54095197,69.60077187,59.80445969
59.60966981,69.71515866,59.91412950
59.70400943,69.85902659,59.95658233
59.78441252,69.99560463,60.05521012
59.84723413,70.12768010,60.12382075
59.94210978,70.27808748,60.19446827
60.00879074,70.40437393,60.21505146
59.98874357,70.43535592,60.24367496
59.66970412,70.04877787,60.00032161
59.21097770,69.38314751,59.54781304
58.96355060,68.90866209,59.32975986
58.90115780,68.74249571,59.25000000
58.86524443,68.65190823,59.24624786
58.82600772,68.60473842,59.20958405
58.83479846,68.60945540,59.21494425
58.88207547,68.64965695,59.22662950
58.91412950,68.72566467,59.32493568
58.92817324,68.72727273,59.30853345
58.91627358,68.70765437,59.29577616
58.92581475,68.71783877,59.34669811
58.98209691,68.78891509,59.40126501
59.03945111,68.88529160,59.42131218
59.10752573,68.98466981,59.47266295
59.14858491,69.03516295,59.49035163
59.23434820,69.18031732,59.57783019
59.31292882,69.29942110,59.69800600
59.36867496,69.39783448,59.72073328
59.44864923,69.48231132,59.80092196
59.50589623,69.60302316,59.79491852
59.52401372,69.71698113,59.84305317
59.62328473,69.84090909,59.98927959
59.70068611,69.97169811,60.05081475
59.78655660,70.11074185,60.12768010
59.86449400,70.20218696,60.13915094
59.76811750,70.13604202,60.09959262
59.34423242,69.60966981,59.66520154
58.96269297,68.98820755,59.34584048
58.75911235,68.61610206,59.17227702
58.72662950,68.46548027,59.11042024
58.72437822,68.43621355,59.15062178
58.70122213,68.41155660,59.11288593
58.71226415,68.43996569,59.08061750
58.79716981,68.51779588,59.19618353
58.84573328,68.55992710,59.19264580
58.83522727,68.58008148,59.21966123
58.84669811,68.59948542,59.21162093
58.86760292,68.62746569,59.23659949
58.97277015,68.76372213,59.36192110
59.05864065,68.87489280,59.43685678
59.18589194,69.01993997,59.47405660
59.20690395,69.13078902,59.56968268
59.30424528,69.25771870,59.62049743
59.37971698,69.36556604,59.68996569
59.43664237,69.47416381,59.68514151
59.51618782,69.61245712,59.82943825
59.60816895,69.72780875,59.86653087
59.68814322,69.84251715,59.97437822
59.73241852,69.95347341,60.02444254
59.80649657,70.08994425,60.11910377
59.90415952,70.24914237,60.16509434
59.94886364,70.34401801,60.17034734
59.98949400,70.43181818,60.29138079
59.77347770,70.21087050,60.06464408
59.27551458,69.51929674,59.55789022
58.91713122,68.87939537,59.32943825
58.76243568,68.55102916,59.15973413
58.70551029,68.38068182,59.04899228
58.66916810,68.26929674,59.05681818
58.57954545,68.17302744,58.95068611
58.62146226,68.18728559,58.97866638
58.64451115,68.22148370,59.06539451
58.69200257,68.26961835,59.09123070
58.69972127,68.29620497,59.05027873
58.72941681,68.31153516,59.09755575
58.74185249,68.31882504,59.12349914
58.81743139,68.44221698,59.19286021
58.88850772,68.54931389,59.25514580
58.94264580,68.64976415,59.29792024
59.01286449,68.76951115,59.35677530
59.11063465,68.90051458,59.43203259
59.19897084,69.03580617,59.52658662
59.29652659,69.17452830,59.61406518
59.38990137,69.31292882,59.67828045
59.48070326,69.45411664,59.80510292
59.55220840,69.61117067,59.86395798
59.64118782,69.71472985,59.92785163
59.72877358,69.88014580,60.04545455
59.81207118,70.00310892,60.07665094
59.90415952,70.14665523,60.14322470
59.98241852,70.28366209,60.21548027
60.05092196,70.41948971,60.34894940
59.85366638,70.23059605,60.11417238
59.34283877,69.52701544,59.65330189
58.94982847,68.85441681,59.32868782
58.79234563,68.45915523,59.11545883
58.71751715,68.29084477,58.99796312
58.69725557,68.12371355,58.95197256
58.66005575,68.08822899,59.02583619
58.69253859,68.07761578,58.94446827
58.74496141,68.12403516,58.98852916
58.79363208,68.15062178,59.07021870
58.78344768,68.14279588,59.02572899
58.79052316,68.14322470,59.04652659
58.81861063,68.16509434,59.07289880
58.86674528,68.25075043,59.11460120
58.93353345,68.34069468,59.18567753
59.00771870,68.45604631,59.25343053
59.09198113,68.60463122,59.36492281
59.19157376,68.71880360,59.42377787
59.24571184,68.83533448,59.49271012
59.30703259,68.92024014,59.49935678
59.39290309,69.07729417,59.61481561
59.46140652,69.19060892,59.72126930
59.50450257,69.28559177,59.76801029
59.57772298,69.40726844,59.76768868
59.68128216,69.53955832,59.93106775
59.72973842,69.66241424,59.99667667
59.81678816,69.80456690,59.99774871
59.82879503,69.86245712,60.04063036
59.57665094,69.53891509,59.78548456
59.13121784,68.85377358,59.37735849
58.90115780,68.30488851,59.12392796
58.84112350,68.09262436,59.02422813
58.82965266,68.01018439,58.98424099
58.86352916,67.98552744,59.03977273
58.87489280,68.01597341,59.03183962
58.94650515,68.10366638,59.14054460
58.99474700,68.16734563,59.18664237
59.02304889,68.20336621,59.19950686
59.03098199,68.22716552,59.21108491
59.00986278,68.29116638,59.22277015
59.11181389,68.38411235,59.25825472
59.21805317,68.49271012,59.39150943
59.29877787,68.63861492,59.42785163
59.36352916,68.79105918,59.53998714
59.46869640,68.91895369,59.57118353
59.58458405,69.04684820,59.73381218
59.61063465,69.17409949,59.73349057
59.68835763,69.32729417,59.83458405
59.72362779,69.46397942,59.87285592
59.85345197,69.60195111,59.95165094
59.91616638,69.72148370,60.06453688
60.03623499,69.88936535,60.18374786
60.13111063,70.02926672,60.26897513
60.14301029,70.10677530,60.26715266
59.96494425,69.84294597,60.08115352
59.53505575,69.14333190,59.61674528
59.26554460,68.54041595,59.30563894
59.11524443,68.25525300,59.21087050
59.08319039,68.13572041,59.15437393
59.06421527,68.09487564,59.17763722
59.07975986,68.08426244,59.20819039
59.16348628,68.17442110,59.27304889
59.22116209,68.26361492,59.34830617
59.26961835,68.32515009,59.36288593
59.29331046,68.35227273,59.37628645
59.35784734,68.40351630,59.42624357
59.43664237,68.52026158,59.51854631
59.49378216,68.59734134,59.56946827
59.62156947,68.79974271,59.67838765
59.67699400,68.93278302,59.75268010
59.75536021,69.05488851,59.74656947
59.88175386,69.24067324,59.90619640
59.98434820,69.36706690,59.93696398
60.07707976,69.54277444,60.10859777
60.10452401,69.61888937,60.15876930
60.21301458,69.78934391,60.25546741
60.27572899,69.91059177,60.34219554
60.35066467,70.02219125,60.37039022
60.43728559,70.14483276,60.43985849
60.53001715,70.29138079,60.52722985
60.61074185,70.42120497,60.61481561
60.61256432,70.41445111,60.60184391
60.28505575,69.94028731,60.31442967
59.87253431,69.20315180,59.83587050
59.60902659,68.61953259,59.56700257
59.50450257,68.34219554,59.41959691
59.45561750,68.26179245,59.41166381
59.43621355,68.17592196,59.39997856
59.40641081,68.09766295,59.40791166
59.46440823,68.14794168,59.42881647
59.50343053,68.26372213,59.47555746
59.52562178,68.27433533,59.51554460
59.56142796,68.30070755,59.51168525
59.58533448,68.34026587,59.48885077
59.64118782,68.42828045,59.66305746
59.76715266,68.54588336,59.75750429
59.87982419,68.72480703,59.82836621
59.98681389,68.87510720,59.93406947
60.09884220,69.04202401,60.03280446
60.18557033,69.17592196,60.09787736
60.26918954,69.31850343,60.19071612
60.32590051,69.48777873,60.24957118
60.41713122,69.61996141,60.31014151
60.51918954,69.74903516,60.40405232
60.64258148,69.91295026,60.49978559
60.71580189,70.03998714,60.59380360
60.83222556,70.18664237,60.64740566
60.91219983,70.35645369,60.77154803
60.99292453,70.50686106,60.84198113
61.07161235,70.63143225,60.90930532
60.94554031,70.40501715,60.78666381
60.57257719,69.74474700,60.42270583
60.30124357,69.12585763,60.07439966
60.10066467,68.77647942,59.91756003
60.06850343,68.65426672,59.85902659
60.05413808,68.63261149,59.87660806
60.04888508,68.60934820,59.88379074
60.11256432,68.68567753,59.95883362
60.18664237,68.77390652,60.01833190
60.22802316,68.84401801,60.03291166
60.24378216,68.87307033,60.02958834
60.23059605,68.89290309,60.04920669
60.29105918,68.94864923,60.10366638
60.36813894,69.03494854,60.15222985
60.46269297,69.16316467,60.25278731
60.54620497,69.36202830,60.34916381
60.59605489,69.47920240,60.36535163
60.69457547,69.61503002,60.48466981
60.81978988,69.75825472,60.57150515
60.87264151,69.90951973,60.64172384
60.94082333,69.99807033,60.65930532
61.02562178,70.13132504,60.83286878
61.07761578,70.28880789,60.79652659
61.18642796,70.45379503,60.93792882
61.30499571,70.59509005,61.05778302
61.38786449,70.71826758,61.11234991
61.33490566,70.68160377,61.05445969
61.01693825,70.12457118,60.80060034
60.69661235,69.50621784,60.36663808
60.52744425,69.14515437,60.25707547
60.49078045,69.06710978,60.18546312
60.47984563,69.03430532,60.21676672
60.50686106,69.02637221,60.22277015
60.55317324,69.10999142,60.29245283
60.60827616,69.23413379,60.32933105
60.64933533,69.32472127,60.39719125
60.65330189,69.32161235,60.41573756
60.69532590,69.34798456,60.37650086
60.70636792,69.38947256,60.43857204
60.78837907,69.55124357,60.51672384
60.87532161,69.67913808,60.59701973
60.94822041,69.83243997,60.66391509
61.04406089,69.98810034,60.74946398
61.12875214,70.12553602,60.82407804
61.22813036,70.23799314,60.90716123
61.26382933,70.39762007,60.98917238
61.35527444,70.54095197,61.09969983
61.40994854,70.65158662,61.09498285
61.50192967,70.78859348,61.20711835
61.56357204,70.90641081,61.22780875
61.66048456,71.03634220,61.30070755
61.68953688,71.21719554,61.38443396
61.77851630,71.33168954,61.50900515
61.66134220,71.25718268,61.33587050
61.35430961,70.70079331,61.07707976
60.94210978,69.96976844,60.63250429
60.78108919,69.54931389,60.51114923
60.71505146,69.35634648,60.38078902
60.68942967,69.31442967,60.37167667
60.62789451,69.20593911,60.30306604
60.62392796,69.20004288,60.33254717
60.68739280,69.28602058,60.37135506
60.69725557,69.33340480,60.39215266
60.70711835,69.37178388,60.41959691
60.70100772,69.38754288,60.44393225
60.76318611,69.43921527,60.45636792
60.79513293,69.52948113,60.54320326
60.87853774,69.66477273,60.61695969
60.95604631,69.82847341,60.73027444
61.03591338,69.90319468,60.78655660
61.12564322,70.09862779,60.87135506
61.16809605,70.20261578,60.91552316
61.24153087,70.31764580,60.94543310
61.34305317,70.48006003,61.04159520
61.38464837,70.57568611,61.11728130
61.44907804,70.68771441,61.14697684
61.55521012,70.82193396,61.25996998
61.61706690,70.97255575,61.27873070
61.67302744,71.09905660,61.34069468
61.74946398,71.23038165,61.45593911
61.83855060,71.37178388,61.45733276
61.78462693,71.38861492,61.43128216
61.49421098,70.94168096,61.20132933
61.10720412,70.17838765,60.78301887
60.82461407,69.69789880,60.52744425
60.75857633,69.45497427,60.44789880
60.69607633,69.36996141,60.45186535
60.70122213,69.31228559,60.36310034
60.66713122,69.29706261,60.40619640
60.69178816,69.34959262,60.45422384
60.74260292,69.44693396,60.46773156
60.76693825,69.46805317,60.49142367
60.77948113,69.48745712,60.49153087
60.80167238,69.51350772,60.53344768
60.86803173,69.61438679,60.60302316
60.94018010,69.72148370,60.65801887
60.99506861,69.84219554,60.69768439
61.07397084,69.95261578,60.76779588
61.12628645,70.06539451,60.79695540
61.23563465,70.27165523,60.95626072
61.26897513,70.36910377,60.99260292
61.32632933,70.48263293,61.04502573
61.43471269,70.64376072,61.14354631
61.46419383,70.71590909,61.23477702
61.56518010,70.86985420,61.27186964
61.62714408,70.99099485,61.33190395
61.69897084,71.08662093,61.37221269
61.76447256,71.21644511,61.41627358
61.84873499,71.35581046,61.56936106
61.84723413,71.44671955,61.54470412
61.69629074,71.23724271,61.38218268
61.30992710,70.56357204,60.97630789
60.97234134,69.91745283,60.69232419
60.84380360,69.61653087,60.54298885
60.76340051,69.51147084,60.44693396
60.71773156,69.44071612,60.45765437
60.73006003,69.44403945,60.48777873
60.78301887,69.50000000,60.54502573
60.83769297,69.60012864,60.57933105
60.83640652,69.62778731,60.59476844
60.81185678,69.61267153,60.60259434
60.82643654,69.62682247,60.62982419
60.87274871,69.66841767,60.60495283
60.91487993,69.75235849,60.62199828
60.99110206,69.84766295,60.66477273
61.02465695,69.98091767,60.75085763
61.10709691,70.11395798,60.87017581
61.17785163,70.20829760,60.91305746
61.24388937,70.30156518,60.93213979
61.29909949,70.40951973,60.98756432
61.30242281,70.50696827,61.05456690
61.39386792,70.60677530,61.11063465
61.42838765,70.72641509,61.18374786
61.52047599,70.82836621,61.18578473
61.56250000,70.95165094,61.26554460
61.65330189,71.07118353,61.32311321
61.58833619,71.02658662,61.31796741
61.24292453,70.46119211,60.94832762
60.78623499,69.69768439,60.51672384
60.54684820,69.20486707,60.27862350
60.47480703,68.99646226,60.14997856
60.44639794,68.96012007,60.18224700
60.44436106,68.93750000,60.17849485
60.46558748,68.95207976,60.22545026
60.52326329,69.04684820,60.26361492
60.57075472,69.15030017,60.34884220
60.51865352,69.16916810,60.27487136
60.54095197,69.19575472,60.26629503
60.59230274,69.21880360,60.29491852
60.64086621,69.30681818,60.40973413
60.70668954,69.42774443,60.46140652
60.77337050,69.55917667,60.54631218
60.87982419,69.69543310,60.63990137
60.94200257,69.80306604,60.70272298
61.00750429,69.95947684,60.72941681
61.08726415,70.07461407,60.81174957
61.12307033,70.16209262,60.85999142
61.21194254,70.31164237,60.93063894
61.28119640,70.44307461,60.97094768
61.36996141,70.55306604,61.04277444
61.41144940,70.66487993,61.09798456
61.50653945,70.80499571,61.19135935
61.52862350,70.90169383,61.20551029
61.55060034,70.95240137,61.24721269
61.23756432,70.57011149,61.01093482
60.77508576,69.77379931,60.54695540
60.45540309,69.07289880,60.16509434
60.27669383,68.70979846,59.99195969
60.19811321,68.55445969,59.90523156
60.13657804,68.46912521,59.85077187
60.09991424,68.41295026,59.84969983
60.12993139,68.46140652,59.88936535
60.22737993,68.59101630,59.97866638
60.23863636,68.64493997,60.06110635
60.22298456,68.64879931,60.05981990
60.24431818,68.69800600,60.10237993
60.28301887,68.75321612,60.07975986
60.34198113,68.91187822,60.08876501
60.45154374,69.03280446,60.19039451
60.52036878,69.18117496,60.31217839
60.61910377,69.32493568,60.33801458
60.73295455,69.47866638,60.48981561
60.79309605,69.61899657,60.56196398
60.91027015,69.74517581,60.63689966
60.95390223,69.90673242,60.70347341
61.01758148,70.00428816,60.74914237
61.09444683,70.17828045,60.82450686
61.17870926,70.29105918,60.86803173
61.25943396,70.41702401,60.97727273
61.28730703,70.50493139,60.98456261
61.37682247,70.61888937,61.08308319
61.43717839,70.77101201,61.11427959
61.23745712,70.53205403,60.96966123
60.82021870,69.84830617,60.50696827
60.40298027,69.05563894,60.13346913
60.17195540,68.63357633,59.87264151
60.11974700,68.50546741,59.80992710
60.04406089,68.39440395,59.78569897
60.05017153,68.38464837,59.80467410
60.07482847,68.42624357,59.81453688
60.13464837,68.51822470,59.87757290
60.12575043,68.56635935,59.93535592
60.13840051,68.60388079,59.93750000
60.12403516,68.61717410,59.90555317
60.17881647,68.66359348,59.94682676
60.25954117,68.75675386,60.05092196
60.29138079,68.86578045,60.09605489
60.42924528,69.02101201,60.21526587
60.43160377,69.16487993,60.21548027
60.52647942,69.27883791,60.27069039
60.62896655,69.42999571,60.39997856
60.70111492,69.50879074,60.47019726
60.76790309,69.65791166,60.46858919
60.83855060,69.76586621,60.57933105
60.87853774,69.84680532,60.64676244
60.94243139,69.97630789,60.63239708
61.04406089,70.11138508,60.77369211
61.09519726,70.26179245,60.84927101
61.13732847,70.36545883,60.88668525
60.95979846,70.15105060,60.67913808
60.53001715,69.44875643,60.32504288
60.14011578,68.77262007,59.97566467
59.98799314,68.48306175,59.76608062
59.94489708,68.40823328,59.74506861
59.92216981,68.39858491,59.71698113
59.95207976,68.43256861,59.74710549
59.99346055,68.51125643,59.80842624
60.03698542,68.61888937,59.87896655
60.05617496,68.64043739,59.92881647
60.04127358,68.65984134,59.88861492
60.05488851,68.66959691,59.93096055
60.06325043,68.72641509,59.92860206
60.17538593,68.87542882,60.04288165
60.24667667,69.02540738,60.11031304
60.32397084,69.18246141,60.17731561
60.38957976,69.28752144,60.23027444
60.48231132,69.44907804,60.35924099
60.56710978,69.57568611,60.38314751
60.58887221,69.67034734,60.47223413
60.63143225,69.81775300,60.48177530
60.69586192,69.90469554,60.53226844
60.79684820,70.05156518,60.63346913
60.83962264,70.14193825,60.65330189
60.91005575,70.27111921,60.75954117
61.00150086,70.41102058,60.79352487
60.86267153,70.27176244,60.66198542
60.42324185,69.66423671,60.31646655
59.96001286,68.87274871,59.85495283
59.74667667,68.42527873,59.60409520
59.59219554,68.24656947,59.46376501
59.57600772,68.18492710,59.44028731
59.51114923,68.14236707,59.42624357
59.50686106,68.15137221,59.46183533
59.56464408,68.23617067,59.51147084
59.56078473,68.27669383,59.52626501
59.55424528,68.30253002,59.55188679
59.57000429,68.33694254,59.60109348
59.58544168,68.39161664,59.61181389
59.68342624,68.51575901,59.68535592
59.74335334,68.64515437,59.76007719
59.82772298,68.76382933,59.84466123
59.87457118,68.89922813,59.85934820
59.93481990,69.01479417,59.95690395
60.03183962,69.18321184,60.02433533
60.08243997,69.26897513,60.10452401
60.16262864,69.40769726,60.13261149
60.19607633,69.52026158,60.16734563
60.29824185,69.66981132,60.32204117
60.32579331,69.77304889,60.36888937
60.41659520,69.89987136,60.45154374
60.46687393,70.06550172,60.48316895
60.49335334,70.17710120,60.56024871
60.57943825,70.25782590,60.60195111
60.34723413,69.98681389,60.41348628
59.84637650,69.19843482,59.86352916
59.43321184,68.53698542,59.51468696
59.22748714,68.18996569,59.38379074
59.13979417,68.00600343,59.24335334
59.03376930,67.87510720,59.09230274
58.97255575,67.80403087,59.08533448
58.99946398,67.85666810,59.12253431
59.04534734,67.94950686,59.17399228
59.07965266,68.01382933,59.22330617
59.09541166,68.06024871,59.27851630
59.10195111,68.07064751,59.24153087
59.13572041,68.12757290,59.28966552
59.22502144,68.29877787,59.43685678
59.32504288,68.41895369,59.53237564
59.42345626,68.59691252,59.58147513
59.45668954,68.74678388,59.61106346
59.51940395,68.82343482,59.71022727
59.59777015,68.94789880,59.75042882
59.69961407,69.09305317,59.82783019
59.76522298,69.24292453,59.89451115
59.84659091,69.39526158,59.99088765
59.92806604,69.50589623,60.05070755
59.99753431,69.63475557,60.15319468
60.07611492,69.78387650,60.20368782
60.16627358,69.90748285,60.32257719
60.23198971,70.05853345,60.33276158
60.28945111,70.16295026,60.41295026
60.06260720,70.02358491,60.25128645
59.68310463,69.37178388,59.79931389
59.29320326,68.65362350,59.41584477
59.06818182,68.24099485,59.20004288
58.97255575,68.12628645,59.14837050
58.91734563,68.04684820,59.12553602
58.90801887,68.00879074,59.13228988
58.94243139,68.01340051,59.15426672
59.02111921,68.14933533,59.23338336
59.04052316,68.20583190,59.23542024
59.03923671,68.23670669,59.24656947
59.04298885,68.25010720,59.25696827
59.06678816,68.29234563,59.30864065
59.12092624,68.37971698,59.30746141
59.21687393,68.52090480,59.46687393
59.28784305,68.63475557,59.53548456
59.33404803,68.74656947,59.60527444
59.43889365,68.89558319,59.66852487
59.47620069,68.96012007,59.70754717
59.58061750,69.13078902,59.77787307
59.61771012,69.21633791,59.81539451
59.65662521,69.32515009,59.87467839
59.70497427,69.40844768,59.90909091
59.76211407,69.53870069,59.99710549
59.85934820,69.68546312,60.11620926
59.99721269,69.84541166,60.20175815
60.02851630,69.90415952,60.24463979
59.81207118,69.68792882,60.03205403
59.34240995,69.01629503,59.54952830
59.06282161,68.46269297,59.23306175
58.92785163,68.19521870,59.10087907
58.89108062,68.12264151,59.11192110
58.89365352,68.13614923,59.11878216
58.91541595,68.16305746,59.18385506
59.02465695,68.30681818,59.27722985
59.05210120,68.39901372,59.33897942
59.04706261,68.45015009,59.37617925
59.06046312,68.44789880,59.32268439
59.09069468,68.51522298,59.37199828
59.13218268,68.58672813,59.46494425
59.21687393,68.72287736,59.50782590
59.28987993,68.85334477,59.58018868
59.36610206,68.97437822,59.66498714
59.45272298,69.10924099,59.73166810
59.50771870,69.24528302,59.80746141
59.59391081,69.38893654,59.86213551
59.65383791,69.52176244,59.95143654
59.72212693,69.63078902,59.99078045
59.78462693,69.73231132,60.06528731
59.89140223,69.88282590,60.12210549
59.93771441,69.98810034,60.15276587
60.00675386,70.13046741,60.20722556
60.01543739,70.16144940,60.26029160
59.75793310,69.84498285,60.02229846
59.29116638,69.12006861,59.52422813
58.95786878,68.55906947,59.22159091
58.81389365,68.29481132,59.09369640
58.76436535,68.21012007,59.05746141
58.74592624,68.16809605,59.04716981
58.70969125,68.14451115,59.03752144
58.73788593,68.19028731,59.09358919
58.78494854,68.27958834,59.12285592
58.75107204,68.33726415,59.13443396
58.77454974,68.35066467,59.14633362
58.81786021,68.38304031,59.19822041
58.84048027,68.46012007,59.25171527
58.95036449,68.58951544,59.31507290
59.01254288,68.68128216,59.36803173
59.08865780,68.80413808,59.45808319
59.19039451,68.97255575,59.56260720
59.21858919,69.04877787,59.60280875
59.28473413,69.17088336,59.65244425
59.36481561,69.28870069,59.68642796
59.40319468,69.31657376,59.74903516
59.37650086,69.33597770,59.73091767
59.39333190,69.35731132,59.71365780
59.44982847,69.43867925,59.77722985
59.49549743,69.50385935,59.79266724
59.56400086,69.63518439,59.87274871
59.52079760,69.60698971,59.88250429
59.11385077,69.07783019,59.43653516
58.66262864,68.36503002,59.03355489
58.39590480,67.88990137,58.78291166
58.31989708,67.73070326,58.66981132
58.25171527,67.63036021,58.67688679
58.22737993,67.59637650,58.63882933
58.25686106,67.61899657,58.65780446
58.29084477,67.69822041,58.68642796
58.35034305,67.80424528,58.80638937
58.34165952,67.83544168,58.79749142
58.35698971,67.87285592,58.82697256
58.37682247,67.91498714,58.85623928
58.41337907,67.96076329,58.87521441
58.45422384,68.09058748,58.83737136
58.51790309,68.17570755,58.94564751
58.64794168,68.32847341,59.12178388
58.77637221,68.53451973,59.24356775
58.88507719,68.69232419,59.30617496
58.95883362,68.81710978,59.47019726
59.05156518,68.97223413,59.50718268
59.13861492,69.10280875,59.52154803
59.20433105,69.22534305,59.60741852
59.29180961,69.37285592,59.65801887
59.37778731,69.50857633,59.77894511
59.47855918,69.67109777,59.93374786
59.54781304,69.79802744,59.97191252
59.40651801,69.61084906,59.77508576
58.89922813,68.96805317,59.25664666
58.51265009,68.34155232,58.98413379
58.36159949,68.03205403,58.82665094
58.33940823,67.94661235,58.82890223
58.33340480,67.97620069,58.82590051
58.32482847,67.95883362,58.84283877
58.40351630,68.03216123,58.86470840
58.42817324,68.10098628,58.92624357
58.44371784,68.12553602,58.93128216
58.41991852,68.14033019,58.91906089
58.43760720,68.16638079,58.92024014
58.49131647,68.21751715,59.01833190
58.56121355,68.34916381,59.05349485
58.65169383,68.46387221,59.11503002
58.71301458,68.61974700,59.22180532
58.80671098,68.72459262,59.28462693
58.90480274,68.85055746,59.35398799
58.91284305,68.95165094,59.38132504
58.99506861,69.09969983,59.47727273
59.05403087,69.17560034,59.54952830
59.13421955,69.29459691,59.58040309
59.22577187,69.43846484,59.61127787
59.31389365,69.56089194,59.76543739
59.38432676,69.70593911,59.87660806
59.20433105,69.50364494,59.67903087
58.75868353,68.88582762,59.21387221
58.36020583,68.26865352,58.87414237
58.20079331,67.91520154,58.70379503
58.11202830,67.77304889,58.58608491
58.08694254,67.74710549,58.61095626
58.07257719,67.70936964,58.60859777
58.10066467,67.77004717,58.66348628
58.18374786,67.87028302,58.71783877
58.22898799,67.93803602,58.77315609
58.21483705,67.95947684,58.79352487
58.22888079,67.97823756,58.78762864
58.28655660,68.05799743,58.87703688
58.39290309,68.19178816,58.96172813
58.47287736,68.32965266,59.03934391
58.54234563,68.45422384,59.10087907
58.63732847,68.59894940,59.17978130
58.73306175,68.73263293,59.22512864
58.83469125,68.87735849,59.37971698
58.92913808,69.01104202,59.42935249
58.96140652,69.11749571,59.42024014
59.02637221,69.23370497,59.49163808
59.11277873,69.36277873,59.53773585
59.22662950,69.51222127,59.65866209
59.26350772,69.64837050,59.75278731
59.40512436,69.81786021,59.87896655
59.40490995,69.84358919,59.88111063
59.07257719,69.38325472,59.48659949
58.58018868,68.66423671,59.09862779
58.26425815,68.13346913,58.81057033
58.15094340,67.89686964,58.67795883
58.12821612,67.84391081,58.72191252
58.11352916,67.79063036,58.66327187
58.10087907,67.77540738,58.66455832
58.16991852,67.84487564,58.68514151
58.23188250,67.95229417,58.74324614
58.21526587,67.98263293,58.75964837
58.23349057,67.99849914,58.75879074
58.23895798,68.02069039,58.79641938
58.30939108,68.09412521,58.85012864
58.40823328,68.23627787,58.91916810
58.49035163,68.37735849,58.99721269
58.56925386,68.50385935,59.05638937
58.65587479,68.63100343,59.19425386
58.74614065,68.76372213,59.24442539
58.81635935,68.88261149,59.30713979
58.90490995,69.02197684,59.39354631
59.00718268,69.15555317,59.48874357
59.06099914,69.25353774,59.54041595
59.14912093,69.40276587,59.55370926
59.22352058,69.52840909,59.66734563
59.30831904,69.67710120,59.75471698
59.37853774,69.80478130,59.81228559
59.21269297,69.56260720,59.62735849
58.73788593,68.94328902,59.19886364
58.39097341,68.37403516,58.95036449
58.33115352,68.16048456,58.83008148
58.32214837,68.14247427,58.81721698
58.29706261,68.10795455,58.84487564
58.33629931,68.15190823,58.85838336
58.43106775,68.27369211,58.93621355
58.47212693,68.36449400,58.98713551
58.49485420,68.40887650,58.99549743
58.48338336,68.43042453,59.00653945
58.50171527,68.47469983,58.98734991
58.57547170,68.56239280,59.10098628
58.66166381,68.69789880,59.16316467
58.75439537,68.83115352,59.25503859
58.85141509,68.97062607,59.35656089
58.95894082,69.12403516,59.47416381
59.03741424,69.26575901,59.52047599
59.12596484,69.39933533,59.56914666
59.17216981,69.53344768,59.63614923
59.26104202,69.65083619,59.70315180
59.34005146,69.74871355,59.76307890
59.41723842,69.88957976,59.83769297
59.48231132,70.03741424,59.92420669
59.58704974,70.19125214,60.04180961
59.60538165,70.26661664,60.03741424
59.36374357,69.96665952,59.76361492
58.90523156,69.28473413,59.37092624
58.62392796,68.79030875,59.07182676
58.51565180,68.57375643,58.99399657
58.49195969,68.54856346,59.02990995
58.47973842,68.50568182,59.00310892
58.46451544,68.48702830,58.98981561
58.49238851,68.58544168,59.04063036
58.57472127,68.69543310,59.08672813
58.59873499,68.73295455,59.09208834
58.62189108,68.74174528,59.16091338
58.63893654,68.79652659,59.17409949
58.67806604,68.89033019,59.25289451
58.77379931,68.99849914,59.33104631
58.82118353,69.13679245,59.42388508
58.90898370,69.24710549,59.47609348
59.01072041,69.41295026,59.59433962
59.08801458,69.54084477,59.61138508
59.19028731,69.68599914,59.69371784
59.26747427,69.82236278,59.76511578
59.32718696,69.94103774,59.83168954
59.39204545,70.05949828,59.97287736
59.46408662,70.15448113,59.94221698
59.53977273,70.28934391,60.01940395
59.62939537,70.42763722,60.13411235
59.71923242,70.56593053,60.15598199
59.79180961,70.70154374,60.24120926
59.74078045,70.70626072,60.20261578
59.35259434,70.18664237,59.82643654
58.86513722,69.52508576,59.37821612
58.68342624,69.15383791,59.19886364
58.63990137,69.01104202,59.20636792
58.59123070,68.95701115,59.12617925
58.58747856,68.92645798,59.15137221
58.58083190,68.96269297,59.15330189
58.61503002,69.03098199,59.19607633
58.68085334,69.13304031,59.29191681
58.72941681,69.17495712,59.27358491
58.73606346,69.23177530,59.33833619
58.75075043,69.29256003,59.40683962
58.81678816,69.34744854,59.45894082
58.90147942,69.44221698,59.46644511
58.99035163,69.56475129,59.56389365
59.02240566,69.65062178,59.58972985
59.08597770,69.77680103,59.65008576
59.16337907,69.91509434,59.72727273
59.21312178,70.03709262,59.80102916
59.34219554,70.16187822,59.87757290
59.39858491,70.26951115,59.93696398
59.46397942,70.38078902,59.96891081
59.51468696,70.48938679,60.07236278
59.60216552,70.59809177,60.16219983
59.67945969,70.77036878,60.23692110
59.71129931,70.84509005,60.31014151
