R,G,B
68.31260720,67.80231561,60.81475129
68.23284734,67.66809605,60.66723842
68.25750429,67.62542882,60.70990566
68.27915952,67.43439108,60.59026587
68.21108491,67.24431818,60.55885506
68.30874786,67.14558319,60.69296741
68.31357204,67.18878645,60.83072470
68.28419811,67.23059605,60.74088765
68.32825901,67.20904803,60.73391938
68.31185678,67.25225129,60.76447256
68.35441681,67.25986278,60.76457976
68.42838765,67.33447684,60.74678388
68.54577616,67.46901801,60.86267153
68.62575043,67.58694254,60.94414666
68.69468268,67.71054889,61.04566895
68.72737993,67.84466123,61.04084477
68.76661664,67.94457547,61.10795455
68.84734134,68.04373928,61.19875643
68.88754288,68.16713122,61.22266295
68.98006003,68.27208405,61.33747856
69.00536021,68.38722127,61.33211835
69.06303602,68.49013722,61.38743568
69.06871784,68.61824614,61.42549314
68.89579760,68.39622642,61.26200686
68.52433533,67.84487564,60.96151372
68.29652659,67.42002573,60.74828473
68.28730703,67.22534305,60.71912521
68.28151801,67.14751286,60.68439108
68.28430532,67.07075472,60.72984563
68.28151801,67.02487136,60.67903087
68.32257719,67.03591338,60.67613636
67.92870926,66.57064751,60.17828045
67.93567753,66.58469125,60.16080617
67.92527873,66.61974700,60.13261149
67.94146655,66.62950257,60.19060892
67.98424099,66.65876930,60.22373499
68.03698542,66.73466981,60.27026158
68.12896655,66.89118782,60.25611063
68.19704117,67.01114923,60.35548885
68.23584906,67.14365352,60.47813036
68.32675815,67.29845626,60.48842196
68.37778731,67.42860206,60.57054031
68.38078902,67.50471698,60.56024871
68.42399228,67.61052744,60.61653087
68.48316895,67.74474700,60.65576758
68.57150515,67.88561321,60.75053602
68.66177101,68.05392367,60.84959262
68.75879074,68.19811321,60.96440823
68.83769297,68.30960549,61.01093482
68.86245712,68.45186535,60.99710549
69.02540738,68.66584477,61.15984134
69.04020154,68.78934391,61.20658233
69.12264151,68.92324185,61.35055746
69.19875643,69.08512007,61.37500000
69.26061321,69.26275729,61.46944683
69.33276158,69.40973413,61.57011149
69.16252144,69.30810463,61.42903087
68.79331046,68.73113208,61.03323328
68.49946398,68.18685678,60.69564751
68.43567753,67.95175815,60.66745283
68.42484991,67.87682247,60.63432676
68.46269297,67.89408233,60.67860206
68.51072041,67.84691252,60.65094340
68.56314322,67.89225986,60.73509863
68.62210549,67.94286021,60.76768868
68.63186106,67.95347341,60.77765866
68.60934820,67.96569468,60.76908233
68.61567324,67.94135935,60.80628216
68.65480274,67.96698113,60.79352487
68.71054889,68.04245283,60.84176672
68.77583619,68.13925815,60.90233705
68.83662093,68.26672384,61.00621784
68.90072899,68.35506003,61.01329331
69.01039880,68.52154803,61.09509005
69.01082762,68.57493568,61.13153945
69.04931389,68.67109777,61.17002573
69.13550600,68.77594340,61.24699828
69.18524871,68.90651801,61.33597770
69.25782590,69.05092196,61.36481561
69.18814322,69.00546741,61.32772298
68.94789880,68.65415952,61.07246998
68.69875643,68.23542024,60.88722127
68.60109348,67.96301458,60.73316895
68.60195111,67.88561321,60.74946398
68.62585763,67.85591767,60.76393654
68.65716123,67.85313036,60.79652659
68.71558748,67.90641081,60.78098199
68.76447256,67.95636792,60.85559605
68.77047599,67.98981561,60.86181389
68.78473413,67.98906518,60.84905660
68.79802744,68.00321612,60.86063465
68.81796741,68.03816467,60.87500000
68.86813894,68.11449400,60.95368782
68.93696398,68.23606346,60.99635506
69.00343053,68.33747856,61.04438250
69.10237993,68.49303173,61.15984134
69.17538593,68.59734134,61.19639794
69.21440823,68.69918525,61.27315609
69.28934391,68.80092196,61.32643654
69.35774014,68.92506432,61.40255146
69.39504717,69.01854631,61.45529588
69.46719554,69.16337907,61.49635506
69.52197684,69.27862350,61.52583619
69.58522727,69.40448113,61.63561321
69.62242710,69.52251286,61.67517153
69.72137650,69.66927530,61.74453259
69.75986278,69.82697256,61.81475129
69.80553173,69.97041166,61.87971698
69.83512007,70.05531732,61.91788165
69.56325043,69.69296741,61.68010292
69.17313465,68.96837479,61.33415523
68.93750000,68.45701115,60.99860635
68.89311750,68.14654803,60.96001286
68.87457118,68.01200686,60.93074614
68.86342196,67.85913379,60.87500000
68.81839623,67.70025729,60.80896226
68.83844340,67.65426672,60.82900943
68.91102058,67.69811321,60.87285592
68.94082333,67.72105489,60.91895369
68.94050172,67.72137650,60.92099057
68.96537307,67.70829760,60.90769726
68.97502144,67.69714837,60.92356346
69.01189966,67.75096484,60.93514151
69.05821184,67.82815180,60.95186535
69.10002144,67.92870926,60.92549314
69.18900086,68.03591338,61.06250000
69.27990995,68.16198542,61.13754288
69.29191681,68.27755146,61.19671955
69.32654374,68.34219554,61.23477702
69.41102058,68.47534305,61.30939108
69.47105489,68.59283877,61.35313036
69.52401372,68.69554031,61.35741852
69.58983705,68.81303602,61.46333619
69.65362350,68.95400943,61.55606775
69.56174957,68.86406518,61.52251286
69.21923242,68.33844340,61.19886364
68.95358062,67.80113636,60.91069897
68.87778731,67.52272727,60.82825901
68.89504717,67.32922384,60.82407804
68.85527444,67.21891081,60.71269297
68.86427959,67.09691252,60.72277015
68.88014580,67.05017153,60.70068611
68.93739280,67.09819897,60.75493139
68.95443825,67.13732847,60.75739708
68.94650515,67.10430961,60.72545026
68.94007290,67.08951544,60.72223413
68.96526587,67.12049743,60.77122642
68.99935678,67.17538593,60.82461407
69.06507290,67.29298885,60.87382075
69.14826329,67.43900086,60.93063894
69.21966123,67.60366638,60.99410377
69.23724271,67.72973842,61.09015866
69.36374357,67.90105060,61.15962693
69.42141938,68.02390652,61.18771441
69.51457976,68.17667238,61.27765866
69.51211407,68.35130789,61.29491852
69.63775729,68.52283448,61.40019297
69.73156089,68.68782161,61.50300172
69.79009434,68.84240995,61.62414237
69.87810892,68.99710549,61.64547599
69.96012007,69.14751286,61.74656947
70.02229846,69.31861063,61.83704974
70.09005146,69.45840480,61.88164666
70.18235420,69.66541595,61.95658233
70.24924957,69.78355489,62.03098199
70.34712693,69.95711835,62.13164666
70.44446827,70.12457118,62.21805317
70.48767153,70.29256003,62.25739708
70.56603774,70.45776158,62.41016295
70.57965266,70.54298885,62.39933533
70.27626501,70.18364065,62.14933533
69.91316467,69.51736707,61.72512864
69.68128216,69.02004717,61.55306604
69.66863208,68.85109348,61.47394940
69.71966123,68.71558748,61.44350343
69.74442539,68.67731561,61.43031732
69.72459262,68.61288593,61.44414666
69.75900515,68.58426244,61.46033448
69.78334048,68.63668525,61.46001286
69.82772298,68.67034734,61.54427530
69.82975986,68.66595197,61.52272727
69.82000429,68.62296312,61.52647942
69.86738851,68.68235420,61.54341767
69.94629074,68.79234563,61.64161664
70.01897513,68.91991852,61.68128216
70.05102916,69.00857633,61.71162093
70.10827616,69.14172384,61.76715266
70.18760720,69.27744425,61.85120069
70.25439537,69.42334906,61.91627358
70.28784305,69.52069039,61.97394940
70.31978988,69.61417238,62.01940395
70.39847770,69.74603345,62.08329760
70.43621355,69.83522727,62.10130789
70.51747427,69.98102487,62.19264580
70.60259434,70.15190823,62.29384648
70.57236278,70.15319468,62.27047599
70.25353774,69.78462693,61.99581904
69.95315180,69.29298885,61.75075043
69.85677530,68.99078045,61.58040309
69.91756003,68.94157376,61.57407804
69.91852487,68.90308748,61.65673242
69.97277015,68.92945969,61.64493997
70.03194683,68.99271012,61.69961407
70.11342196,69.11342196,61.75085763
70.12532161,69.16884648,61.77905232
70.11556604,69.17774443,61.80081475
70.11749571,69.18889365,61.78194683
70.13786449,69.23134648,61.78730703
70.17420669,69.31357204,61.82600772
70.23016724,69.42034734,61.91756003
70.27958834,69.52422813,61.94789880
70.37821612,69.68246141,62.06410806
70.45015009,69.79749142,62.09530446
70.46301458,69.92913808,62.13647084
70.53709262,70.06903945,62.24721269
70.60066467,70.21108491,62.26275729
70.64997856,70.31164237,62.31807461
70.67549314,70.46237136,62.40469554
70.74356775,70.60184391,62.42560034
70.83190395,70.75836192,62.51072041
70.87735849,70.89365352,62.57332762
70.92045455,71.05574614,62.59412521
70.99817753,71.25053602,62.73852916
71.06550172,71.38111063,62.77069039
71.10087907,71.52948113,62.85709691
71.02948113,71.54491852,62.82193396
70.68610635,71.05638937,62.47791595
70.31828902,70.40426672,62.16820326
70.16852487,69.95883362,61.98306175
70.15351630,69.81475129,61.94446827
70.17999571,69.74238851,61.91455832
70.16745283,69.70690395,61.92045455
70.17024014,69.70047170,61.90544597
70.22748714,69.72920240,61.92174099
70.25536021,69.74249571,61.97491424
70.20829760,69.71773156,61.97073328
70.21912521,69.68374786,61.93224700
70.20754717,69.66702401,61.92774443
70.24228130,69.70304460,61.96612350
70.27894511,69.77272727,62.00278731
70.35463122,69.89022298,62.07675815
70.40555317,69.99924957,62.09594768
70.44671955,70.12424957,62.15383791
70.50450257,70.21226415,62.19296741
70.52733705,70.32064751,62.22502144
70.57815180,70.41370069,62.29320326
70.62360635,70.51447256,62.34894940
70.63486278,70.62521441,62.39686964
70.61224271,70.73381218,62.39547599
70.46258576,70.47930961,62.23681389
70.09991424,69.85570326,61.86771012
69.83083190,69.37307033,61.66766724
69.81946827,69.13293310,61.57482847
69.77090480,69.07600772,61.56421527
69.78216123,69.00321612,61.52144082
69.78291166,68.95079331,61.54363208
69.84123070,68.96044168,61.58458405
69.86395798,69.00632504,61.58822899
69.91498714,69.05649657,61.64890652
69.89429674,69.04631218,61.63829331
69.89504717,69.02776587,61.62339194
69.91048456,69.05456690,61.62103345
69.95840480,69.11213551,61.67838765
70.04331046,69.24699828,61.70518868
70.09230274,69.32986707,61.81357204
70.17174099,69.49463979,61.89987136
70.20304460,69.61342196,61.94232419
70.29052316,69.73542024,61.99463979
70.25911235,69.79749142,62.01661664
70.30606775,69.93256861,62.06035592
70.40426672,70.05113636,62.14954974
70.45861921,70.17560034,62.19618353
70.50836192,70.30488851,62.26029160
70.59251715,70.44757719,62.34080189
70.64461835,70.63025300,62.38861492
70.71751715,70.78677101,62.49110206
70.75257290,70.93074614,62.53280446
70.80906947,71.07129074,62.55606775
70.87231990,71.22480703,62.61031304
70.84905660,71.38572041,62.65501715
70.91166381,71.52594340,62.76329331
70.98649228,71.67088336,62.83533448
70.88057461,71.56603774,62.75257290
70.41509434,70.88765009,62.31668096
70.01061321,70.06207118,61.94521870
69.82289880,69.55017153,61.71633791
69.76189966,69.33415523,61.60130789
69.77090480,69.19993568,61.58136792
69.74346055,69.09165952,61.55713979
69.75503859,68.99281732,61.53505575
69.74453259,68.97309177,61.51597341
69.75235849,68.96204974,61.51050600
69.74989280,68.95593911,61.52240566
69.70947684,68.92302744,61.50771870
69.71805317,68.90973413,61.51350772
69.73724271,68.92999571,61.48123928
69.78355489,68.98509863,61.52840909
69.89397513,69.14397513,61.64247427
69.95979846,69.24646226,61.69800600
70.04856346,69.38132504,61.84959262
70.07729417,69.47502144,61.79620497
70.09412521,69.55789022,61.84584048
70.17442110,69.71858919,61.92356346
70.19961407,69.79588336,61.93760720
70.24153087,69.92377787,62.04084477
70.31378645,70.04770583,62.08158233
70.39965695,70.20883362,62.16209262
70.47062607,70.34005146,62.20240137
70.47137650,70.44543310,62.26018439
70.29663379,70.25675386,62.06957547
69.81560892,69.53280446,61.69854202
69.54738422,68.95668954,61.38915094
69.43428388,68.63625643,61.24667667
69.45701115,68.58372642,61.25546741
69.44575472,68.49013722,61.26114923
69.45551029,68.44071612,61.21172813
69.51865352,68.47469983,61.26779588
69.57547170,68.53259005,61.32954545
69.58629931,68.57750858,61.36052744
69.59777015,68.58361921,61.35977702
69.58876501,68.57675815,61.35763293
69.63647084,68.59937822,61.36888937
69.67549314,68.66820326,61.43449828
69.76265009,68.82139794,61.49292453
69.83061750,68.97748714,61.55488851
69.90533877,69.15083619,61.70358062
69.98102487,69.27690823,61.73531304
70.09358919,69.44736278,61.82214837
70.13893654,69.56539451,61.85827616
70.18750000,69.68642796,61.93857204
70.28623499,69.85441681,62.04459691
70.33533448,70.00686106,62.04674099
70.40222985,70.14686964,62.18289022
70.45658233,70.28505575,62.20808319
70.52262007,70.44929245,62.28977273
70.59487564,70.63196827,62.36267153
70.67806604,70.82429245,62.43042453
70.74442539,71.03451973,62.48113208
70.78162521,71.17120497,62.57750858
70.84948542,71.31861063,62.66230703
70.90919811,71.50096484,62.67956690
70.93878645,71.70057890,62.72094768
70.91927530,71.75868353,62.74110206
70.58447684,71.30274443,62.42324185
70.09294597,70.51147084,62.01876072
69.84744854,69.86824614,61.76318611
69.80853345,69.57504288,61.67538593
69.81753859,69.52358491,61.68910806
69.88003859,69.54105918,61.70100772
69.88882933,69.54641938,61.70615352
69.95947684,69.64236707,61.74764151
69.99421098,69.69296741,61.80724700
69.97555746,69.69425386,61.80510292
69.95497427,69.64129503,61.78216123
69.93921527,69.61503002,61.73445540
69.97019726,69.64622642,61.75343053
70.04009434,69.71526587,61.85398799
70.10677530,69.83876501,61.90866209
70.18664237,70.00911235,61.97909520
70.27862350,70.11824614,62.02840909
70.32204117,70.26951115,62.08726415
70.35355918,70.38143225,62.12778731
70.37735849,70.50042882,62.20261578
70.38743568,70.59112350,62.24142367
70.42527873,70.68985849,62.23338336
70.48059605,70.84959262,62.26147084
70.54974271,70.97877358,62.38421955
70.55713979,71.05499571,62.38046741
70.25954117,70.66134220,62.17056175
69.84701973,70.01318611,61.78634220
69.62885935,69.45132933,61.54738422
69.61138508,69.24689108,61.47952401
69.67099057,69.23895798,61.49496141
69.67238422,69.21762436,61.52079760
69.74678388,69.28644940,61.52894511
69.84626930,69.39172384,61.62435678
69.88743568,69.45197256,61.67817324
69.83608491,69.45872642,61.64740566
69.83319039,69.39536878,61.61449400
69.80006432,69.40298027,61.65426672
69.85302316,69.43921527,61.68106775
69.92345626,69.54138079,61.72963122
69.96172813,69.63132504,61.76768868
70.08115352,69.77240566,61.84766295
70.14890652,69.93321184,61.90490995
70.19961407,70.11599485,62.01072041
70.25696827,70.24989280,62.01833190
70.33254717,70.39193825,62.11106346
70.32354202,70.48434820,62.17259863
70.42120497,70.65169383,62.23831475
70.41434391,70.76254288,62.27647942
70.47577187,70.91209262,62.30574614
70.52958834,71.03451973,62.43203259
70.55928388,71.21730274,62.45358062
70.60002144,71.34830617,62.51983276
70.67195540,71.46976844,62.56625214
70.75675386,71.64011578,62.68021012
70.80596055,71.77551458,62.66080617
70.73531304,71.77605060,62.64033019
70.28816467,71.17753002,62.19596913
69.74410377,70.23981561,61.77283448
69.52304889,69.57729417,61.40705403
69.43514151,69.19350343,61.33565609
69.42313465,69.00761149,61.34509005
69.41445111,68.92409949,61.32204117
69.39183105,68.83415523,61.30671098
69.39172384,68.78666381,61.21976844
69.41252144,68.78945111,61.25771870
69.42506432,68.78076758,61.28441252
69.40544597,68.72105489,61.27808748
69.37617925,68.69264580,61.20851201
69.37993139,68.69425386,61.18889365
69.41970412,68.72094768,61.21923242
69.49099485,68.79759863,61.34476844
69.58576329,68.92538593,61.38743568
69.64429674,69.02530017,61.44382504
69.71258576,69.19993568,61.53741424
69.74131647,69.26961835,61.55563894
69.79942110,69.39826329,61.62231990
69.85248714,69.49614065,61.68031732
69.93353345,69.61449400,61.76565180
69.94714837,69.69264580,61.78269726
70.00986278,69.84412521,61.85313036
70.03602058,69.94103774,61.90458834
70.13228988,70.13915094,61.98777873
70.15147942,70.21923242,62.02862350
69.86299314,69.89000858,61.76886792
69.39043739,69.11535163,61.28709262
69.07418525,68.45025729,60.98070326
68.91230703,68.04352487,60.80531732
68.90844768,67.93074614,60.78044597
68.92581475,67.81174957,60.74849914
68.90019297,67.72502144,60.73960120
68.94318182,67.74313894,60.76993997
68.97041166,67.78559177,60.78473413
68.99549743,67.80596055,60.81732419
68.99528302,67.80145798,60.79073756
68.97802316,67.77197684,60.79641938
68.97823756,67.78376930,60.83351201
69.02551458,67.83640652,60.81989708
69.12650086,67.96226415,60.93653516
69.21269297,68.07375643,61.01222127
69.31646655,68.24078045,61.08983705
69.35130789,68.35988422,61.17120497
69.43599914,68.54556175,61.25182247
69.50192967,68.65265866,61.31903945
69.52990995,68.76318611,61.29877787
69.57536449,68.86910377,61.35774014
69.62424957,68.97180532,61.40555317
69.72823756,69.13518439,61.51918954
69.75921955,69.26393654,61.52444254
69.84819897,69.43546312,61.61685249
69.95465266,69.60259434,61.72287736
70.00107204,69.73456261,61.80253002
70.07429245,69.87403516,61.86138508
70.10988422,70.01704545,61.90040738
70.16541595,70.19972127,62.00954117
70.21751715,70.35774014,62.06421527
70.10688250,70.28848628,61.96151372
69.60280875,69.57686535,61.51018439
69.14172384,68.74485420,61.01693825
68.92174099,68.21548027,60.80253002
68.86138508,67.98938679,60.72480703
68.89611921,67.91348628,60.79556175
68.93878645,67.86503002,60.78912950
68.91262864,67.81485849,60.73724271
68.95443825,67.83629931,60.76168525
68.97673671,67.87274871,60.79770583
68.94854202,67.85334477,60.73734991
68.92538593,67.78259005,60.74592624
68.91316467,67.80102916,60.72191252
68.94704117,67.80767581,60.76243568
69.00514580,67.86470840,60.76650943
69.07139794,67.98263293,60.88121784
69.13700686,68.15330189,60.91487993
69.19650515,68.29491852,60.99581904
69.26908233,68.41530875,61.05874786
69.35548885,68.56432247,61.18975129
69.38164666,68.65008576,61.20283019
69.44822041,68.77755146,61.24603345
69.52401372,68.92538593,61.29052316
69.64086621,69.09176672,61.38421955
69.67870926,69.21773156,61.47780875
69.59090909,69.16209262,61.42602916
69.18439108,68.57011149,61.02186964
68.81292882,67.90469554,60.64268868
68.58822899,67.43406947,60.48638508
68.54406089,67.21751715,60.38582762
68.54448971,67.17249142,60.42163379
68.60559605,67.15319468,60.41134220
68.66295026,67.20969125,60.47084048
68.72845197,67.27776587,60.53419811
68.72277015,67.32890223,60.52980274
68.69350343,67.30456690,60.50804031
68.66820326,67.26425815,60.45443825
68.64751286,67.25664666,60.46097770
68.69929245,67.32364923,60.55070755
68.77165523,67.43524871,60.58426244
68.90147942,67.60709691,60.73574185
68.98306175,67.72169811,60.72598628
69.05285163,67.87746569,60.81121355
69.09401801,67.96322899,60.84187393
69.15909091,68.11556604,60.87628645
69.14397513,68.19543310,60.93278302
69.21762436,68.33319039,61.00857633
69.28387650,68.45090051,61.09927101
69.30403087,68.55981990,61.06818182
69.43385506,68.73445540,61.21151372
69.42345626,68.79180961,61.25407376
69.06421527,68.36074185,60.88153945
68.59240995,67.55338765,60.46076329
68.23102487,66.85109348,60.11117067
68.09294597,66.43299743,59.95250858
68.07332762,66.26072041,59.93481990
68.11149228,66.17817324,59.90394511
68.08115352,66.05628216,59.86717410
68.11009863,66.04556175,59.93321184
68.14343911,66.09584048,59.97277015
68.16487993,66.12564322,59.96290738
68.16219983,66.13754288,60.00353774
68.15791166,66.10473842,59.99003002
68.18439108,66.14301029,60.01114923
68.23166810,66.21730274,60.03698542
68.33061750,66.37692967,60.13572041
68.36224271,66.48852916,60.15126501
68.46387221,66.66327187,60.23852916
68.53248285,66.77883791,60.33029588
68.56603774,66.94446827,60.34240995
68.61374357,67.03055317,60.41455832
68.68074614,67.18653516,60.45797599
68.75300172,67.30017153,60.55617496
68.84101630,67.47652230,60.63282590
68.88411235,67.59894940,60.65876930
68.96912521,67.75450257,60.72941681
69.05317324,67.93117496,60.85205832
69.08747856,68.06003431,60.93117496
69.17945969,68.22277015,61.00986278
69.23885077,68.33040309,61.05853345
69.29127358,68.47802316,61.09294597
69.38111063,68.62768010,61.17892367
69.45776158,68.80424528,61.28451973
69.40598199,68.80585334,61.22630789
68.86910377,68.11224271,60.77026158
68.33801458,67.18171098,60.24174528
67.98745712,66.43728559,59.96001286
67.90608919,66.10613208,59.75814751
67.90844768,65.90930532,59.79867067
67.84090909,65.64837050,59.67624357
67.80842624,65.54041595,59.64976415
67.82322041,65.51554460,59.67828045
67.87274871,65.54706261,59.69757719
67.89204545,65.61009863,59.68406947
67.89172384,65.62092624,59.69296741
67.87049743,65.60377358,59.71505146
67.90212264,65.60237993,59.71537307
67.97448542,65.70197256,59.77915952
68.05210120,65.84584048,59.84112350
68.13657804,65.99013722,59.87178388
68.15576758,66.19350343,59.93042453
68.27798027,66.33243997,60.08629931
68.34112350,66.46612350,60.06539451
68.39418954,66.60623928,60.21087050
68.48531304,66.74689108,60.30177959
68.49249571,66.84626930,60.28644940
68.57772298,67.05349485,60.37467839
68.62071184,67.20325901,60.44511149
68.72437822,67.35859777,60.52562178
68.82643654,67.56421527,60.63261149
68.90941252,67.67313465,60.71280017
68.97898799,67.82246998,60.76307890
69.02358491,67.99764151,60.83083190
69.09015866,68.15362350,60.88561321
69.20926244,68.33919383,60.97662950
69.17945969,68.38593482,61.01157804
68.79063036,67.90598199,60.65212264
68.19714837,66.98852916,60.11095626
67.87371355,66.30145798,59.75000000
67.81239280,65.86942539,59.61470840
67.80253002,65.73327616,59.64386792
67.75428816,65.63121784,59.63786449
67.73702830,65.54170240,59.62167667
67.76908233,65.55445969,59.65137221
67.84755575,65.66187822,59.69575472
67.85023585,65.70100772,59.67420669
67.86310034,65.71258576,59.64311750
67.88078902,65.72019726,59.67409949
67.87800172,65.77251286,59.70454545
67.95079331,65.86224271,59.76661664
68.07043310,66.01533019,59.84509005
68.10409520,66.22309177,59.96065609
68.22512864,66.39022298,60.08983705
68.27519297,66.53291166,60.06678816
68.32289880,66.66080617,60.15287307
68.42699400,66.81142796,60.23295455
68.49539022,66.96408662,60.31957547
68.55445969,67.15137221,60.40716123
68.62135506,67.28151801,60.39686964
68.70840480,67.46762436,60.54159520
68.70036449,67.53655660,60.53248285
68.42420669,67.19714837,60.25482419
67.96119211,66.45926244,59.86813894
67.67945969,65.84176672,59.58383362
67.57868782,65.53151801,59.42324185
67.62135506,65.43975129,59.50621784
67.63679245,65.42431389,59.53859348
67.66262864,65.48638508,59.53248285
67.79180961,65.63915094,59.70454545
67.83211835,65.74656947,59.74185249
67.82868782,65.75600343,59.66466552
67.82729417,65.75396655,59.71129931
67.84862779,65.79824185,59.69468268
67.86202830,65.84316038,59.73831475
67.99699828,66.00771870,59.84455403
68.05906947,66.18385506,59.92163379
68.14258148,66.35270154,59.96805317
68.21816038,66.55413808,60.01618782
68.28387650,66.70947684,60.16380789
68.34659091,66.81464408,60.20486707
68.41670240,66.95786878,60.33629931
68.46740995,67.10934820,60.29266724
68.51307890,67.28623499,60.33897942
68.64933533,67.45593911,60.50439537
68.75053602,67.59787736,60.58093911
68.81775300,67.77594340,60.66852487
68.90769726,67.97030446,60.69543310
68.96816038,68.10752573,60.83887221
69.06067753,68.27337050,60.87907376
69.12392796,68.45047170,60.94361063
69.19361063,68.60548885,60.96805317
69.27369211,68.75268010,61.07557890
69.21558748,68.78205403,61.08072470
68.60956261,68.04245283,60.58855060
67.99013722,67.02379931,60.07675815
67.63325472,66.29427530,59.70250858
67.58651372,65.87424957,59.55070755
67.57246998,65.69039451,59.55617496
67.55681818,65.58726415,59.49078045
67.56271441,65.46237136,59.46708834
67.60270154,65.44575472,59.49871355
67.65265866,65.50300172,59.55681818
67.66648799,65.56635935,59.60237993
67.67656518,65.58758576,59.58672813
67.68428388,65.56593053,59.55842624
67.67356346,65.59101630,59.54856346
67.75042882,65.66680961,59.62135506
67.85720412,65.81753859,59.71033448
67.92763722,65.96944683,59.80435249
67.97727273,66.15801887,59.87564322
68.05456690,66.31678816,59.92356346
68.12339194,66.50332333,60.01125643
68.19950686,66.66134220,60.08436964
68.20604631,66.78301887,60.11127787
68.33308319,66.94586192,60.15512436
68.38346913,67.06099914,60.26404374
68.48381218,67.25718268,60.29749142
68.59444683,67.43385506,60.47287736
68.65641081,67.62918096,60.52369211
68.60323756,67.62810892,60.51918954
68.11556604,66.98970840,60.08662093
67.58812178,66.11535163,59.62735849
67.38486278,65.43825043,59.34240995
67.33951544,65.14590480,59.23574185
67.31389365,65.05081475,59.19318182
67.28837907,64.95926244,59.24335334
67.29427530,64.92077616,59.25954117
67.35849057,64.95475986,59.29438250
67.44446827,65.08083190,59.35870497
67.49228130,65.14987136,59.37521441
67.48391938,65.16166381,59.38207547
67.50407376,65.18203259,59.41144940
67.56207118,65.25117925,59.40962693
67.69286021,65.40147942,59.54213122
67.77304889,65.61996141,59.61653087
67.90844768,65.79674099,59.71333619
67.99560463,66.02926672,59.81185678
68.04749142,66.20293739,59.82150515
68.16595197,66.39365352,59.98606346
68.19403945,66.55746141,60.03194683
68.31260720,66.75664666,60.12049743
68.37146226,66.94264580,60.21623070
68.48274014,67.13947256,60.34873499
68.58587050,67.34852058,60.46773156
68.64933533,67.53033877,60.46129931
68.78837907,67.75557461,60.59584048
68.89633362,67.97587907,60.71172813
68.99474700,68.18771441,60.81292882
69.09862779,68.38786449,60.93674957
69.18750000,68.57943825,61.00203688
69.31475129,68.81153516,61.11749571
69.40094340,69.03194683,61.22405660
69.54459691,69.22277015,61.38014580
69.62832333,69.45186535,61.45293739
69.63250429,69.54266724,61.44189537
69.16605918,69.01211407,61.02798027
68.43481990,68.00900515,60.45733276
68.00943396,67.10570326,60.02808748
67.85924099,66.60023585,59.88925815
67.88336192,66.40566038,59.77915952
67.89161664,66.38904374,59.81635935
67.90115780,66.37414237,59.81625214
67.93642796,66.39611921,59.82858062
68.00042882,66.42710120,59.85913379
68.00160806,66.46901801,59.92506432
67.97051887,66.44736278,59.87982419
67.94200257,66.41648799,59.87124786
67.94746998,66.41359348,59.84841338
68.01382933,66.51018439,59.96044168
68.12028302,66.66402230,59.97255575
68.22062607,66.81110635,60.12907376
68.32772298,67.01447256,60.20743997
68.45025729,67.17903087,60.25128645
68.54663379,67.34230274,60.33629931
68.61942539,67.55767581,60.48220412
68.60945540,67.69629074,60.45229417
68.69286021,67.83522727,60.57450686
68.78451973,68.03709262,60.66788165
68.87950257,68.20004288,60.71247856
68.98895798,68.40190823,60.84208834
69.07632933,68.59584048,60.91080617
68.92495712,68.45347341,60.75836192
68.39000858,67.70947684,60.26072041
67.91445111,66.90566038,59.92495712
67.70336621,66.36545883,59.64676244
67.70368782,66.14772727,59.58876501
67.73413379,66.14558319,59.59155232
67.75664666,66.16723842,59.64301029
67.95068611,66.34005146,59.80102916
67.99378216,66.44789880,59.85055746
68.01747427,66.49774871,59.91305746
67.96719554,66.48327616,59.89858491
67.97255575,66.47834477,59.85034305
67.94629074,66.47116209,59.81142796
68.04470412,66.58265437,59.88668525
68.12575043,66.71751715,59.96408662
68.20840480,66.87607204,60.07397084
68.35988422,67.10345197,60.15105060
68.44264580,67.28527015,60.25954117
68.50964837,67.46762436,60.35934820
68.61277873,67.63743568,60.43739280
68.64311750,67.76661664,60.54834906
68.74088765,67.95186535,60.59680532
68.79674099,68.08833619,60.61942539
68.86492281,68.26801029,60.74099485
68.96708834,68.43642796,60.83351201
69.02283448,68.61438679,60.87982419
69.17549314,68.84101630,60.98059605
69.08522727,68.76082762,60.90598199
68.41219983,67.92720840,60.36567324
67.79395369,66.92002573,59.80317324
67.52294168,66.17624357,59.51286449
67.46548027,65.79331046,59.34969983
67.48188250,65.66927530,59.36910377
67.48724271,65.56807461,59.35302316
67.48885077,65.51758148,59.37564322
67.56775300,65.58983705,59.43846484
67.59937822,65.64611921,59.43021012
67.59980703,65.69028731,59.45701115
67.62360635,65.70358062,59.46451544
67.62339194,65.66627358,59.51447256
67.64504717,65.69478988,59.51790309
67.73456261,65.84048027,59.65501715
67.83887221,66.01211407,59.70529588
67.93739280,66.20004288,59.78837907
68.05370926,66.40812607,59.85581046
68.12264151,66.60506003,59.95904803
68.19243139,66.75353774,59.99731990
68.29138079,66.92667238,60.13143225
68.36985420,67.11792453,60.18267581
68.41337907,67.27937393,60.25771870
68.51093482,67.44189537,60.34219554
68.61159949,67.66241424,60.40576758
68.71215695,67.84015866,60.51961835
68.78666381,68.02079760,60.63121784
68.88486278,68.22963122,60.73799314
69.00042882,68.41873928,60.82632933
69.00460978,68.63046741,60.86331475
69.18921527,68.82129074,61.07043310
69.29834906,69.02948113,61.13454117
69.40147942,69.22009005,61.25632504
69.48156089,69.42602916,61.39772727
69.59240995,69.63036021,61.44832762
69.47673671,69.63304031,61.34380360
68.76350772,68.68696398,60.71891081
68.05349485,67.50289451,60.08930103
67.65855489,66.61846055,59.68492710
67.51554460,66.10774014,59.51961835
67.48316895,65.86095626,59.47051887
67.49013722,65.70004288,59.43953688
67.49592624,65.61492281,59.38250429
67.50600343,65.57697256,59.36063465
67.56442967,65.62875214,59.43942967
67.60077187,65.64108062,59.44682676
67.60924099,65.64912093,59.43557033
67.55606775,65.61738851,59.44114494
67.59391081,65.64751286,59.45583190
67.65190823,65.69050172,59.47159091
67.74978559,65.86299314,59.58769297
67.86192110,66.03623499,59.68310463
67.97877358,66.23177530,59.80831904
68.00771870,66.40437393,59.83683533
68.12971698,66.62542882,59.93331904
68.21580189,66.79727702,60.01297170
68.28023156,66.94446827,60.14215266
68.33008148,67.11867496,60.17356346
68.50042882,67.35355918,60.29909949
68.60162950,67.55360206,60.40115780
68.64108062,67.74721269,60.50128645
68.75107204,67.91337907,60.55810463
68.86717410,68.14075901,60.64933533
68.98070326,68.35677530,60.84734134
69.10913379,68.55231561,60.93653516
69.24078045,68.75600343,61.07847341
69.36288593,68.97373499,61.18449828
69.49003002,69.21258576,61.27326329
69.35966981,69.14976415,61.23574185
68.59476844,68.27572899,60.55445969
67.94007290,67.21966123,59.96022727
67.64858491,66.40694683,59.59905660
67.53859348,66.03666381,59.49035163
67.51554460,65.91091338,59.45100772
67.57107633,65.87510720,59.49817753
67.58855060,65.82461407,59.51157804
67.64847770,65.90898370,59.52755146
67.73531304,66.02133362,59.61352916
67.75471698,66.07032590,59.61620926
67.72502144,66.04020154,59.60538165
67.72244854,66.01918954,59.63282590
67.74024443,66.05971269,59.63818611
67.82943825,66.18857204,59.67720840
67.95025729,66.37628645,59.79459691
68.06057033,66.55370926,59.92849485
68.15244425,66.76629503,60.00900515
68.23327616,66.97941681,60.12371355
68.35795455,67.15040738,60.15791166
68.43321184,67.33565609,60.23509863
68.51179245,67.47920240,60.31861063
68.53655660,67.65383791,60.36267153
68.65019297,67.85966981,60.46365780
68.77733705,68.02412093,60.62617925
68.79030875,68.14515437,60.63915094
68.36503002,67.66991852,60.24667667
67.77712264,66.77840909,59.76683105
67.39569039,66.02669383,59.42570755
67.28569897,65.58136792,59.23381218
67.29888508,65.48006003,59.26329331
67.37714408,65.46998285,59.31239280
67.46204974,65.55038593,59.31668096
67.56871784,65.70207976,59.42742281
67.60388079,65.82407804,59.50932676
67.58576329,65.82847341,59.47898799
67.56335763,65.79084477,59.43642796
67.52690823,65.79920669,59.42506432
67.57300600,65.84208834,59.43535592
67.67677959,65.95615352,59.54899228
67.76222127,66.14579760,59.63293310
67.90019297,66.38582762,59.76147084
68.01340051,66.59251715,59.89140223
68.11610206,66.78784305,59.90919811
68.17377787,66.98102487,60.02497856
68.26018439,67.13153945,60.09680532
68.34894940,67.29277444,60.23338336
68.39901372,67.46719554,60.25578902
68.49206690,67.61599485,60.36320755
68.56989708,67.80017153,60.52444254
68.66680961,67.98606346,60.54202401
68.74871355,68.19103774,60.63893654
68.88196827,68.35774014,60.76082762
68.96569468,68.56153516,60.82096913
69.03108919,68.75064322,60.87564322
69.16756003,68.93492710,60.99924957
69.28248285,69.12789451,61.06850343
69.05703259,69.00578902,60.95025729
68.21430103,67.96730274,60.25310892
67.51329331,66.78387650,59.60677530
67.13925815,65.90126501,59.29256003
67.03612779,65.48938679,59.07086192
67.04373928,65.25921955,59.06732419
67.04170240,65.16691681,59.04363208
67.04245283,65.07268439,59.01993997
67.07804460,65.09391081,59.08040309
67.11888937,65.15876930,59.10366638
67.14601201,65.20090051,59.14644082
67.17988851,65.18953688,59.11170669
67.16873928,65.16702401,59.07354202
67.20829760,65.20122213,59.11846055
67.28527015,65.31635935,59.18428388
67.36545883,65.46987564,59.29127358
67.43674957,65.67624357,59.37714408
67.55253002,65.87885935,59.48692110
67.63957976,66.06389365,59.56732419
67.68835763,66.23659949,59.62682247
67.85195111,66.44178816,59.75846913
67.90298027,66.61202830,59.85731132
67.95443825,66.75268010,59.86738851
68.05092196,66.93428388,59.92699400
68.15791166,67.10388079,60.02883791
68.22084048,67.31089194,60.14515437
68.33436964,67.51811750,60.26447256
68.32032590,67.56625214,60.25707547
67.73091767,66.93053173,59.76500858
67.09937822,65.85023585,59.15941252
66.77937393,65.02058319,58.79952830
66.66831046,64.60420240,58.65308748
66.65951973,64.47491424,58.68546312
66.67538593,64.43074614,58.73349057
66.65801887,64.39429674,58.65158662
66.76211407,64.47244854,58.75911235
66.85195111,64.60495283,58.83115352
66.92120497,64.69586192,58.86931818
66.88840051,64.70143654,58.86331475
66.89483276,64.70936964,58.84744854
66.93063894,64.76297170,58.87853774
66.99742710,64.88250429,58.97705832
67.10280875,65.09358919,59.07279160
67.24228130,65.27980274,59.23413379
67.36760292,65.57021870,59.32364923
67.45883362,65.75664666,59.35355918
67.53108919,65.98777873,59.43610635
67.62778731,66.17538593,59.52744425
67.72394940,66.37446398,59.62575043
67.82825901,66.54245283,59.70047170
67.94629074,66.81528731,59.82472127
68.01361492,67.00225129,59.97201973
68.11138508,67.20658233,60.05542453
68.26929674,67.43439108,60.17667238
68.38271870,67.69168096,60.29802744
68.51425815,67.91434391,60.45465266
68.63175386,68.12875214,60.53312607
68.77262007,68.31721698,60.69650515
68.90083619,68.56121355,60.75632504
68.92763722,68.77948113,60.83715695
69.07665094,68.96923242,60.94328902
69.17024014,69.18267581,61.10720412
69.26511578,69.43235420,61.16777444
69.11588765,69.36888937,61.11417238
68.28269726,68.39826329,60.40919811
67.59809177,67.26147084,59.74774871
67.17056175,66.41584477,59.36910377
67.08286878,65.98123928,59.18256861
67.08747856,65.88679245,59.21269297
67.10527444,65.83447684,59.23692110
67.17463551,65.83608491,59.25611063
67.24013722,65.90180103,59.29524014
67.31936106,66.02519297,59.37575043
67.29813465,66.03912950,59.35774014
67.23263293,65.96376501,59.27765866
67.24410377,65.92892367,59.33801458
67.24646226,65.95593911,59.30220840
67.32900943,66.04491852,59.35774014
67.41616638,66.18867925,59.40608919
67.56957547,66.45400943,59.54148799
67.66520154,66.64762007,59.64054460
67.76554460,66.84659091,59.77755146
67.83930103,67.01961835,59.82643654
67.86642367,67.12285592,59.87907376
67.95347341,67.30767581,59.97555746
68.02690823,67.42956690,60.02519297
68.19007290,67.67549314,60.15469554
68.28366209,67.87478559,60.23649228
68.34680532,68.01704545,60.37939537
68.37532161,68.10859777,60.41262864
67.82954545,67.58919383,59.92753002
67.25053602,66.64654803,59.42313465
66.83887221,65.86267153,58.97545026
66.72791595,65.44704117,58.86106346
66.71226415,65.34090909,58.88657804
66.77058319,65.34798456,58.91530875
66.85591767,65.43074614,58.98820755
67.00246569,65.59144511,59.09509005
67.07707976,65.66863208,59.12960978
67.04309605,65.68267581,59.12714408
66.99206690,65.66509434,59.12757290
66.95390223,65.62993139,59.07032590
66.99195969,65.67592196,59.10195111
67.10098628,65.79545455,59.13271870
67.23295455,65.98209691,59.27197684
67.36342196,66.18396226,59.39301029
67.42956690,66.39740566,59.47845197
67.55006432,66.58265437,59.60495283
67.61963979,66.78023156,59.62950257
67.70175815,66.94275300,59.74099485
67.75911235,67.10731132,59.82665094
67.89075901,67.27304889,59.92720840
67.95894082,67.42399228,60.01061321
68.05027873,67.58844340,60.08587050
68.10816895,67.75975557,60.17270583
68.22137650,67.96472985,60.25996998
68.29674099,68.09584048,60.31839623
68.38604202,68.30027873,60.45486707
68.51715266,68.50728988,60.55295883
68.59423242,68.69178816,60.66155660
68.20497427,68.32032590,60.29416810
67.35152230,67.16798885,59.58008148
66.72920240,66.08276158,59.01608062
66.48863636,65.34798456,58.77337050
66.39654803,65.02433533,58.64954974
66.43085334,64.83887221,58.57836621
66.42720840,64.76189966,58.60709691
66.42624357,64.68010292,58.49335334
66.45100772,64.71215695,58.56421527
66.53323328,64.79331046,58.65823328
66.54245283,64.80424528,58.68203259
66.53451973,64.77358491,58.64172384
66.51211407,64.76811750,58.62639365
66.53066038,64.81625214,58.67324185
66.63700686,64.93010292,58.78108919
66.77240566,65.12060463,58.85452401
66.89365352,65.30724700,58.99399657
66.96933962,65.48177530,59.08897942
67.05521012,65.66563036,59.08329760
67.18632075,65.85656089,59.27401372
67.25042882,66.04073756,59.32675815
67.34616209,66.20915523,59.38496998
67.39354631,66.33008148,59.43428388
67.45068611,66.51822470,59.48992281
67.56678816,66.71387221,59.57364923
67.67881647,66.93138937,59.67131218
67.72952401,67.07472127,59.81550172
67.87757290,67.26801029,59.92581475
67.96558748,67.47223413,59.99989280
68.07783019,67.68374786,60.08726415
68.19950686,67.89204545,60.28784305
68.22427101,67.99656947,60.26822470
67.57322041,67.35966981,59.77969554
66.85045026,66.23874357,59.14033019
66.34830617,65.25804031,58.64311750
66.19414666,64.69414666,58.43492710
66.19436106,64.44221698,58.35859777
66.20947684,64.35720412,58.39987136
66.15823328,64.21569468,58.32182676
66.18889365,64.20068611,58.38271870
66.29245283,64.31453688,58.40780446
66.29502573,64.33747856,58.41831046
66.32547170,64.36771012,58.44189537
66.29931389,64.35270154,58.40308748
66.29663379,64.37832333,58.44393225
66.34358919,64.45100772,58.47823756
66.54020154,64.62146226,58.56057033
66.56560892,64.77444254,58.65951973
66.69371784,65.01661664,58.83479846
66.81217839,65.22427101,58.89236707
66.87424957,65.43792882,59.00696827
66.99260292,65.58565609,59.08029588
67.06464408,65.79663379,59.08801458
67.13968696,65.92978130,59.22930961
67.22019726,66.10077187,59.25814751
67.28237564,66.28151801,59.36921098
67.43589194,66.51243568,59.51908233
67.55210120,66.72662950,59.61084906
67.66434391,66.90919811,59.68299743
67.59391081,66.92753002,59.66638079
66.96708834,66.15490995,59.10945540
66.34916381,65.17506432,58.55992710
66.03344768,64.42495712,58.28108919
65.95508148,64.01361492,58.15126501
66.01189966,63.92184820,58.12703688
66.01822470,63.90480274,58.15630360
66.07933105,63.91788165,58.17817324
66.20175815,64.03902230,58.33254717
66.24238851,64.16005575,58.37231990
66.25879074,64.20819039,58.39150943
66.21933962,64.19532590,58.35613208
66.26768868,64.22394940,58.38990137
66.24817753,64.31185678,58.38304031
66.39086621,64.47748714,58.51843911
66.43857204,64.62532161,58.55542453
66.58051029,64.87596484,58.66713122
66.77079760,65.16702401,58.78130360
66.87317753,65.40469554,58.92720840
66.99153087,65.61588765,59.07064751
67.04856346,65.78334048,59.16734563
67.13925815,65.97159091,59.19650515
67.20390223,66.14365352,59.31668096
67.30692539,66.35002144,59.42506432
67.40265866,66.55553173,59.48949400
67.51254288,66.74281732,59.61631647
67.62028302,66.95368782,59.66166381
67.71258576,67.14826329,59.71558748
67.84058748,67.36202830,59.86374357
67.95475986,67.60763293,60.01393654
68.08747856,67.79202401,60.12971698
68.21301458,68.01876072,60.24731990
68.31153516,68.22384220,60.36942539
67.98949400,67.93910806,60.07311321
67.14086621,66.90373070,59.39601201
66.44521870,65.83394082,58.79105918
66.18053173,65.12542882,58.47469983
66.15308748,64.82890223,58.43846484
66.19135935,64.77605060,58.49067324
66.22459262,64.77111921,58.43621355
66.24946398,64.79792024,58.52883791
66.36846055,64.90984134,58.62124786
66.38164666,64.93932247,58.58683533
66.38443396,64.90951973,58.58211835
66.32986707,64.83093911,58.52412093
66.33833619,64.82804460,58.52036878
66.37735849,64.88893654,58.55167238
66.47255575,64.98027444,58.61470840
66.63936535,65.19403945,58.75943396
66.69811321,65.40566038,58.81196398
66.80392367,65.58908662,58.90876930
66.89826329,65.75739708,59.03076758
66.96848199,65.90887650,59.10441681
67.05156518,66.05456690,59.13882933
67.10827616,66.20068611,59.23477702
67.18621355,66.40426672,59.31314322
67.28001715,66.52808748,59.40801887
67.30392367,66.66177101,59.42141938
66.84862779,66.13743568,59.06282161
66.19361063,65.13679245,58.48649228
65.82364923,64.26468696,58.07836621
65.62103345,63.75675386,57.90598199
65.68578473,63.58329760,57.88668525
65.70626072,63.55853345,57.90909091
65.70840480,63.54545455,57.90244425
65.81593053,63.64783448,58.00096484
65.87500000,63.77401372,58.07825901
65.92806604,63.86310034,58.11074185
65.92313465,63.85045026,58.08222556
65.93653516,63.84155232,58.09048027
65.94757719,63.87424957,58.11503002
66.01307890,63.97191252,58.12692967
66.16434391,64.16370069,58.30606775
66.22555746,64.35591767,58.35849057
66.32407804,64.57986707,58.43792882
66.46944683,64.74410377,58.56786021
66.56292882,64.98081046,58.67656518
66.63014580,65.13550600,58.77422813
66.66863208,65.29427530,58.83008148
66.76286449,65.46204974,58.90566038
66.85581046,65.62789451,58.99131647
66.97480703,65.85195111,59.02090480
67.01629503,65.99635506,59.15930532
67.11824614,66.19071612,59.25289451
67.17313465,66.36267153,59.31528731
67.31871784,66.59916381,59.41305746
67.41177101,66.77069039,59.53248285
67.46891081,66.95283019,59.62500000
67.63561321,67.15405232,59.76554460
67.72598628,67.33018868,59.85548885
67.50975557,67.15662521,59.64376072
66.64665523,66.08983705,58.90373070
65.92259863,64.79952830,58.29095197
65.62049743,63.92216981,57.99699828
65.54524014,63.49871355,57.82740137
65.50000000,63.31603774,57.77937393
65.56207118,63.21151372,57.72909520
65.47684391,63.13893654,57.75879074
65.58061750,63.18203259,57.72062607
65.63121784,63.23949400,57.81389365
65.67699400,63.30842624,57.84551887
65.69157376,63.30092196,57.89290309
65.66316467,63.30660377,57.82611492
65.70958405,63.33372642,57.86009863
65.81260720,63.46955403,57.99378216
65.91745283,63.60313036,57.98863636
66.06485849,63.83029588,58.12575043
66.18632075,64.04030875,58.27744425
66.30017153,64.26072041,58.37628645
66.32750858,64.43449828,58.45293739
66.41595197,64.59691252,58.54588336
66.48070326,64.78344768,58.59048027
66.58404803,65.00064322,58.71505146
66.68331904,65.14172384,58.75128645
66.78687822,65.36213551,58.85506003
66.88657804,65.54416810,58.93031732
66.98638508,65.77862350,59.08308319
67.06110635,65.95261578,59.12671527
67.18310463,66.18353345,59.24506861
67.31035592,66.40383791,59.34551887
67.47512864,66.64386792,59.53837907
67.52369211,66.81228559,59.55606775
67.10034305,66.41016295,59.23391938
66.30703259,65.30960549,58.62843053
65.77497856,64.24667667,58.04813465
65.55917667,63.58040309,57.78216123
65.55156518,63.29406089,57.74367496
65.54148799,63.23274014,57.73574185
65.53527015,63.21773156,57.68085334
65.61031304,63.27990995,57.75675386
65.71623070,63.40662521,57.87939537
65.77133362,63.50525300,57.91262864
65.79416810,63.52594340,57.92517153
65.74678388,63.52165523,57.90651801
65.75643225,63.51372213,57.95175815
65.80606775,63.58051029,57.96580189
65.93321184,63.76168525,58.07214837
66.06668096,63.95111492,58.15973413
66.20486707,64.18492710,58.30435249
66.31110635,64.39301029,58.34391081
66.35977702,64.62650086,58.51436535
66.48370497,64.82718696,58.60827616
66.53548456,64.99324614,58.66284305
66.63861492,65.20036449,58.75546741
66.70057890,65.33243997,58.81721698
66.81721698,65.54170240,58.90426672
66.90587479,65.77337050,59.00278731
67.06432247,65.97920240,59.04888508
66.95668954,65.95411664,59.07118353
66.30521012,65.21387221,58.53484134
65.70143654,64.17806604,58.00353774
65.42367067,63.45390223,57.70047170
65.41820326,63.19586192,57.59551887
65.44425386,63.14022298,57.63936535
65.49946398,63.17077616,57.70786878
65.62585763,63.29652659,57.80981990
65.71912521,63.47448542,57.87135506
65.78012436,63.58329760,57.88046741
65.77240566,63.60795455,57.91777444
65.71901801,63.65147942,57.86653087
65.75996998,63.65255146,57.92506432
65.81968268,63.71869640,57.93717839
65.87285592,63.88057461,58.01993997
66.00911235,64.13475557,58.20658233
66.16916810,64.32868782,58.32118353
66.24281732,64.52476415,58.39676244
66.30231561,64.75235849,58.48156089
66.39601201,64.90287307,58.57354202
66.47727273,65.05981990,58.61020583
66.52862350,65.20443825,58.72116209
66.55767581,65.32632933,58.69854202
66.66509434,65.49957118,58.81582333
66.76533019,65.68964408,58.88089623
66.89504717,65.94564751,59.06442967
67.00192967,66.07461407,59.17259863
66.57697256,65.71162093,58.77379931
65.84176672,64.65394511,58.13314751
65.35934820,63.61685249,57.62457118
65.21976844,63.05360206,57.47234134
65.13432676,62.78484134,57.36996141
65.14858491,62.76415094,57.38743568
65.17238422,62.77036878,57.41530875
65.25321612,62.81903945,57.52036878
65.39118782,62.99003002,57.64933533
65.40941252,63.03312607,57.65212264
65.41659520,63.03151801,57.64429674
65.36695969,62.97866638,57.59980703
65.36181389,63.00975557,57.60581046
65.45336621,63.09080189,57.67141938
65.55789022,63.27186964,57.73006003
65.67484991,63.45636792,57.80456690
65.79041595,63.66991852,57.92484991
65.87028302,63.82675815,58.08426244
65.99646226,64.01447256,58.16455832
66.11288593,64.18857204,58.25117925
66.14086621,64.35806175,58.30596055
66.21494425,64.51382933,58.35002144
66.30092196,64.71751715,58.49388937
66.33822899,64.83972985,58.50546741
66.46269297,65.01693825,58.61620926
66.52894511,65.22277015,58.70711835
66.61234991,65.40737564,58.76350772
66.71826758,65.59048027,58.91402230
66.78677101,65.75932676,58.95207976
66.92259863,65.99271012,59.03151801
67.06389365,66.25964837,59.20283019
67.10484563,66.36342196,59.26672384
66.63711407,65.89118782,58.86503002
65.79127358,64.64140223,58.18578473
65.20551029,63.40490995,57.58715695
65.01157804,62.70733276,57.35012864
64.85345197,62.37746569,57.21365780
64.81357204,62.22909520,57.14590480
64.74785592,62.06646655,57.12564322
64.74903516,62.02304889,57.09551887
64.80563894,62.07965266,57.14826329
64.91884648,62.17613636,57.25268010
64.95593911,62.22330617,57.24367496
64.93106775,62.23231132,57.25096484
64.93321184,62.25718268,57.21408662
65.02219125,62.31014151,57.32922384
65.08972985,62.48960120,57.43921527
65.26232847,62.70400943,57.46387221
65.43053173,62.91745283,57.65951973
65.57718696,63.11878216,57.76929674
65.69757719,63.30563894,57.84509005
65.83243997,63.50782590,58.00632504
65.87114065,63.63228988,58.02722985
65.92753002,63.79180961,58.10720412
66.05713979,64.00718268,58.22973842
66.13218268,64.18964408,58.26318611
66.22094768,64.41370069,58.33394082
66.31753859,64.61042024,58.42817324
66.40415952,64.83812178,58.53409091
66.49367496,64.99045883,58.64290309
66.56828902,65.16756003,58.70272298
66.71097770,65.43396226,58.78473413
66.81132075,65.64172384,58.94682676
66.88829331,65.80403087,58.96526587
66.61352916,65.58844340,58.76533019
65.82332762,64.46290738,58.09305317
65.19135935,63.26490137,57.54298885
64.92795883,62.50385935,57.20797599
64.83243997,62.16713122,57.15812607
64.75117925,62.02540738,57.12789451
64.72416381,61.91734563,57.06035592
64.75257290,61.91423671,57.10270154
64.82954545,61.97727273,57.23434820
64.94039451,62.12928816,57.25964837
64.96665952,62.19200257,57.26082762
64.94864923,62.19500429,57.25053602
64.97695111,62.22716552,57.24774871
65.00203688,62.30006432,57.25053602
65.14172384,62.48156089,57.39837050
65.26050600,62.66359348,57.50214408
65.43664237,62.90405232,57.69436106
65.56882504,63.12971698,57.78194683
65.71698113,63.32439966,57.80917667
65.84273156,63.50996998,57.97330617
65.93814322,63.71751715,58.00611063
66.00954117,63.88711407,58.10924099
66.06732419,64.04245283,58.20819039
66.13775729,64.18385506,58.26747427
66.25450257,64.39601201,58.36642367
66.36620926,64.63207547,58.47662950
66.39376072,64.80778302,58.56271441
66.35838336,64.80778302,58.47823756
65.79599057,64.06593053,57.94328902
65.28269726,63.04406089,57.49281732
64.90287307,62.32611492,57.17152659
64.80006432,62.01082762,57.06250000
64.78870069,61.94886364,57.05692539
64.82472127,61.93385506,57.07279160
64.85323756,61.93964408,57.10645369
64.99646226,62.10516724,57.26511578
65.07740137,62.23156089,57.32911664
65.09230274,62.29513293,57.29084477
65.10398799,62.32675815,57.32418525
65.11192110,62.35827616,57.31732419
65.23220412,62.48456261,57.39708405
65.32311321,62.66595197,57.50107204
65.47855918,62.85591767,57.65201544
65.62714408,63.06625214,57.69575472
65.70926244,63.30253002,57.74099485
65.84830617,63.48574185,57.92292024
65.98059605,63.69093053,58.03441252
66.07139794,63.87049743,58.06196398
66.19661235,64.07268439,58.15330189
66.25621784,64.25385935,58.30124357
66.30317324,64.45411664,58.32525729
66.38732847,64.65683962,58.42742281
66.52079760,64.86642367,58.54931389
66.63261149,65.07107633,58.63282590
66.71312178,65.28559177,58.76157804
66.80778302,65.48724271,58.81764580
66.89322470,65.67302744,58.89472556
66.94382504,65.81432247,58.97920240
67.03141081,66.01211407,59.06936106
67.18342624,66.26854631,59.24324614
67.21901801,66.46408662,59.24774871
66.91423671,66.10741852,59.01565180
66.14879931,65.10484563,58.35870497
65.77808748,64.22984563,58.00793310
65.72362779,63.77851630,57.81024871
65.75696827,63.67935249,57.79899228
65.81014151,63.68557033,57.88561321
65.82322041,63.70872642,57.86588765
65.89912093,63.76254288,57.90212264
66.02165523,63.92817324,57.99356775
65.99045883,63.96923242,58.00482419
65.95969125,63.96612350,57.98606346
65.93846484,63.89987136,57.98670669
65.96966123,63.93385506,58.04234563
66.02186964,64.00343053,58.04030875
66.09198113,64.18674957,58.10055746
66.18696398,64.35227273,58.22684391
66.30842624,64.49839194,58.26725986
66.37500000,64.66573756,58.33769297
66.42699400,64.85581046,58.41541595
66.45400943,64.96858919,58.47502144
66.48027444,65.07032590,58.54331046
66.55188679,65.23349057,58.58469125
66.61535163,65.37907376,58.69210978
66.70572470,65.57043310,58.79256003
66.80981990,65.77615780,58.86642367
66.81442967,65.84123070,58.83415523
66.39879931,65.37006861,58.48156089
65.91906089,64.54363208,58.00782590
65.68267581,63.93739280,57.78344768
65.67903087,63.70518868,57.74163808
65.67592196,63.65619640,57.77669383
65.70840480,63.67216981,57.77594340
65.74796312,63.69478988,57.78076758
65.85613208,63.77701544,57.93975129
65.95079331,63.90255146,57.99410377
65.89633362,63.93042453,57.98274014
65.87392796,63.91723842,57.97019726
65.87500000,63.92645798,57.95283019
65.92141938,63.99774871,57.94607633
65.99206690,64.09734134,57.98799314
66.02154803,64.25310892,58.11181389
66.09916381,64.42120497,58.16262864
66.18385506,64.59509005,58.25675386
66.24131647,64.74539022,58.31550172
66.30456690,64.88968696,58.44500429
66.30403087,65.02958834,58.43825043
66.33565609,65.13003859,58.40276587
66.43921527,65.30435249,58.54491852
66.49571184,65.43567753,58.57547170
66.55392367,65.61159949,58.70422384
66.65898370,65.76404374,58.74624786
66.74710549,65.96365780,58.83286878
66.82911664,66.12542882,58.97212693
66.85816895,66.27583619,59.01318611
66.99356775,66.46955403,59.11406518
67.06389365,66.63400515,59.17388508
67.17281304,66.78301887,59.24614065
67.25804031,66.92249142,59.36417238
67.29502573,67.07161235,59.41487993
67.41080617,67.25900515,59.52401372
67.08790738,66.96162093,59.27422813
66.42056175,66.01961835,58.65555317
65.91498714,65.10237993,58.24131647
65.79288165,64.63379074,58.06732419
65.80563894,64.47073328,58.00589623
65.84948542,64.41359348,58.00257290
65.83758576,64.36953259,58.02412093
65.81861063,64.28709262,57.99871355
65.88947256,64.31786021,58.06721698
65.93953688,64.35484563,58.10634648
65.92978130,64.36674528,58.09637650
65.92988851,64.34176672,58.08683533
65.87039022,64.26661664,58.04513293
65.89108062,64.31453688,58.12199828
65.91477273,64.37146226,58.14054460
66.03955832,64.54041595,58.16734563
66.07386364,64.69478988,58.31078473
66.14794168,64.81861063,58.36513722
66.20808319,64.92442110,58.37510720
66.21494425,64.99281732,58.41756003
66.28934391,65.11824614,58.49217410
66.34262436,65.26436535,58.52765866
66.41831046,65.36556604,58.57397084
66.47394940,65.52026158,58.62875214
66.57718696,65.63529160,58.71526587
66.62307033,65.79909949,58.82740137
66.68224700,65.94382504,58.85162950
66.77347770,66.09616209,58.95679674
66.81132075,66.20604631,58.95904803
66.86728130,66.35527444,59.04781304
66.97234134,66.50364494,59.15201544
67.07836621,66.68900086,59.27197684
67.13261149,66.80156518,59.32643654
66.86224271,66.50525300,59.07707976
66.20486707,65.61888937,58.52176244
65.80885506,64.78591338,58.14097341
65.72727273,64.38100343,57.99485420
65.72737993,64.24281732,57.97073328
65.78023156,64.20840480,57.96719554
65.80102916,64.12907376,57.99035163
65.82011149,64.10741852,57.96183533
65.85484563,64.18010292,58.05467410
65.90180103,64.20904803,58.06796741
65.88111063,64.21430103,58.01704545
65.87081904,64.17763722,58.02583619
65.86277873,64.17903087,58.06196398
65.88775729,64.21087050,58.10195111
65.96440823,64.33126072,58.14536878
66.04931389,64.45304460,58.22813036
66.17602916,64.61599485,58.29974271
66.25353774,64.74967839,58.41284305
66.31110635,64.89451115,58.45647513
66.33383362,64.99142367,58.50192967
66.39418954,65.14826329,58.51318611
66.47566467,65.26725986,58.60452401
66.54170240,65.42120497,58.70465266
66.59551887,65.52605060,58.73595626
66.64847770,65.67013293,58.86288593
66.77144082,65.87993139,58.92495712
66.82911664,66.03044597,58.98842196
66.78141081,65.99303173,58.94843482
66.31153516,65.35077187,58.53516295
65.88003859,64.56250000,58.15340909
65.73177530,64.05210120,58.00664666
65.71751715,63.89762007,57.96730274
65.76382933,63.86803173,57.98145369
65.85452401,63.89633362,58.04406089
65.92613636,63.96794597,58.04298885
66.00310892,64.11610206,58.16756003
66.02819468,64.18213979,58.17099057
66.05542453,64.18664237,58.20786878
65.99463979,64.15909091,58.13271870
66.02669383,64.16219983,58.14526158
66.06593053,64.21901801,58.20551029
66.14815609,64.34626930,58.30596055
66.24871355,64.51479417,58.38014580
66.35045026,64.68557033,58.49281732
66.42302744,64.84005146,58.52980274
66.46194254,65.04213122,58.56850343
66.55756861,65.15147942,58.61052744
66.64912093,65.29942110,58.76147084
66.69779160,65.41112779,58.75932676
66.73702830,65.55070755,58.83565609
66.84369640,65.70711835,58.91766724
66.93546312,65.85548885,58.99078045
66.99753431,66.02605060,59.06485849
67.11149228,66.22234134,59.18803602
67.18803602,66.35677530,59.28044597
67.26608062,66.55960549,59.31818182
67.34744854,66.71430103,59.41948971
67.43750000,66.86288593,59.51554460
67.53119640,67.03612779,59.63925815
67.54052316,67.09862779,59.60184391
66.99796312,66.51382933,59.18235420
66.46472985,65.58565609,58.64333190
66.15523156,64.83662093,58.31582333
66.11610206,64.55628216,58.32965266
66.19768439,64.49249571,58.35420240
66.21751715,64.47845197,58.40062178
66.28366209,64.51650943,58.41959691
66.37617925,64.59466123,58.49603345
66.43213979,64.70272298,58.55370926
66.41166381,64.69446827,58.54781304
66.38625643,64.63111063,58.49710549
66.36792453,64.59262436,58.46376501
66.38754288,64.58008148,58.50696827
66.44361063,64.64858491,58.49957118
66.55403087,64.81174957,58.64386792
66.65233705,64.98102487,58.76511578
66.73584906,65.16037736,58.73220412
66.82161235,65.29631218,58.84112350
66.88550600,65.45433105,58.91809605
66.92999571,65.59358919,58.97030446
67.01211407,65.67763722,59.00117925
67.09498285,65.82632933,59.07868782
67.18867925,65.98649228,59.16037736
67.24346055,66.11202830,59.21708834
67.20540309,66.10870497,59.21976844
66.77551458,65.47770154,58.86342196
66.35066467,64.63947256,58.45336621
66.22662950,64.07418525,58.18782161
66.15855489,63.86438679,58.18342624
66.18707118,63.79792024,58.18428388
66.18782161,63.77058319,58.22770154
66.21054889,63.80360206,58.19210978
66.35795455,63.97888079,58.36267153
66.40587479,64.05360206,58.40287307
66.42195540,64.07954545,58.42195540
66.40287307,64.06646655,58.39022298
66.40812607,64.06442967,58.37081904
66.46816038,64.10666810,58.45207976
66.60259434,64.30306604,58.51704545
66.70626072,64.46183533,58.59884220
66.81185678,64.66670240,58.67785163
66.91123499,64.82204117,58.81475129
67.01758148,64.98284734,58.90437393
67.09348199,65.16616638,59.00578902
67.16809605,65.30724700,59.02358491
67.22512864,65.49742710,59.12414237
67.31024871,65.64708405,59.16509434
67.33512007,65.77637221,59.26050600
67.44596913,65.96419383,59.34541166
67.53987993,66.12950257,59.36878216
67.65844768,66.32161235,59.53516295
67.74228130,66.50536021,59.56689537
67.87242710,66.65801887,59.70926244
67.96376501,66.82740137,59.82675815
68.04952830,66.95561750,59.91402230
67.66777444,66.49024443,59.55778302
66.99099485,65.38293310,58.96569468
66.68192539,64.45808319,58.56850343
66.47041166,63.94125214,58.46419383
66.37210549,63.68192539,58.40512436
66.33887221,63.56121355,58.32236278
66.27337050,63.37671527,58.24614065
66.25943396,63.29674099,58.24549743
66.31389365,63.33576329,58.27294168
66.42088336,63.47126930,58.39022298
66.44286021,63.49131647,58.38797170
66.45132933,63.46826758,58.39472556
66.47255575,63.50235849,58.41209262
66.55531732,63.56024871,58.44361063
66.67720840,63.74989280,58.55006432
66.76843911,63.91938250,58.60184391
66.90083619,64.12146226,58.77755146
67.00268010,64.26876072,58.81807461
67.07943825,64.44607633,58.87317753
67.20583190,64.63464837,58.97319897
67.27272727,64.75857633,59.02937393
67.39301029,64.93246141,59.06818182
67.50375214,65.09659091,59.15512436
67.59519726,65.25686106,59.21719554
67.72384220,65.41873928,59.37349914
67.83554889,65.58897942,59.50536021
67.91938250,65.77422813,59.55660377
67.99431818,65.97051887,59.62210549
68.10774014,66.14590480,59.73081046
68.22727273,66.34691252,59.85806175
68.28323328,66.52058319,59.89215266
68.37650086,66.72234134,59.95111492
68.44039451,66.87156947,60.08383362
68.57397084,67.09734134,60.13743568
68.62928816,67.21655232,60.18825043
68.24324614,66.70743997,59.93707118
67.76104202,65.64526158,59.40169383
67.27026158,64.72759434,58.93299743
67.10152230,64.21644511,58.79641938
67.04824185,64.02787307,58.76736707
67.00428816,63.89837050,58.77508576
66.96408662,63.76575901,58.70422384
66.97759434,63.73338336,58.70808319
67.06346484,63.81432247,58.75235849
67.10259434,63.88518439,58.81250000
67.11545883,63.91648799,58.85216552
67.14118782,63.91134220,58.82793739
67.16713122,63.94050172,58.84937822
67.23617067,64.04213122,58.89890652
67.33919383,64.18289022,59.00707547
67.47523585,64.40190823,59.09873499
67.53430532,64.56989708,59.14429674
67.67474271,64.76715266,59.24485420
67.75407376,64.94039451,59.35141509
67.80724700,65.13036021,59.34584048
67.93224700,65.26865352,59.43567753
68.01672384,65.41702401,59.50900515
68.12221269,65.60355918,59.68246141
68.23895798,65.78870069,59.74710549
68.33726415,65.93717839,59.75407376
68.44564751,66.15469554,59.86481561
68.51736707,66.32804460,59.98070326
68.63840051,66.51018439,60.04920669
68.68213979,66.65705403,60.09015866
68.78173242,66.87349914,60.15544597
68.88657804,67.09112350,60.33640652
68.99024443,67.25010720,60.40147942
68.98713551,67.37392796,60.46140652
68.71912521,66.96033448,60.17045455
68.22759434,66.06014151,59.63261149
67.74849914,65.20969125,59.27765866
67.59873499,64.80306604,59.14097341
67.57322041,64.68278302,59.12725129
67.62028302,64.64858491,59.17302744
67.55917667,64.59584048,59.10463122
67.61138508,64.63732847,59.18471269
67.68439108,64.71933962,59.21976844
67.74517581,64.80864065,59.29556175
67.75761149,64.84123070,59.27990995
67.74474700,64.86159949,59.29599057
67.77798027,64.90876930,59.36031304
67.88271870,65.03323328,59.41016295
67.98863636,65.23349057,59.46290738
68.08329760,65.39290309,59.55392367
68.20658233,65.58158233,59.69800600
68.24463979,65.78902230,59.62950257
68.42677959,66.00075043,59.82257719
68.52422813,66.12885935,59.84905660
68.59123070,66.24238851,59.91348628
68.69361063,66.42688679,59.97555746
68.73059605,66.54534734,60.05092196
68.80510292,66.70754717,60.10934820
68.89129503,66.89536878,60.17731561
69.01061321,67.10302316,60.28441252
69.08704974,67.28966552,60.36921098
68.98370497,67.24828473,60.33126072
68.52551458,66.58790738,59.96247856
68.11556604,65.75600343,59.48477702
67.84466123,65.26854631,59.30992710
67.82214837,65.15255146,59.29813465
67.84080189,65.16112779,59.32772298
67.89108062,65.18653516,59.38078902
67.91434391,65.24496141,59.35495283
68.04599057,65.42592196,59.51640223
68.11277873,65.53837907,59.56217839
68.11921098,65.54202401,59.53559177
68.11899657,65.56603774,59.53623499
68.13111063,65.60280875,59.55177959
68.22523585,65.73831475,59.60430961
68.33887221,65.92292024,59.65019297
68.45861921,66.10270154,59.78023156
68.56914666,66.30992710,59.88968696
68.66788165,66.52272727,59.92817324
68.75085763,66.69661235,60.04331046
68.78473413,66.84884220,60.12156947
68.84905660,67.02594340,60.16831046
68.85891938,67.19060892,60.14879931
68.93010292,67.36620926,60.29095197
68.99549743,67.47126930,60.33747856
69.06957547,67.69221698,60.43492710
69.14150943,67.86063465,60.53687822
69.22051887,68.01211407,60.63432676
69.28194683,68.23820755,60.71719554
69.37071184,68.39922813,60.76886792
69.45175815,68.60891938,60.91638079
69.51575901,68.77840909,60.95872642
69.45272298,68.78634220,60.96644511
68.92838765,68.10248714,60.44854202
68.35216552,67.14140223,59.86631647
68.07632933,66.39751286,59.57161235
68.01007719,66.07054031,59.45368782
68.04127358,66.01468696,59.46129931
68.03012436,65.97716552,59.46129931
68.06035592,65.98102487,59.49153087
68.10366638,66.04063036,59.50846913
68.11931818,66.14547599,59.56464408
68.11374357,66.14826329,59.54084477
68.08394082,66.11438679,59.52176244
68.07161235,66.07911664,59.48370497
68.11395798,66.10152230,59.53012436
68.19393225,66.24474700,59.66048456
68.21665952,66.39719125,59.70100772
68.28430532,66.55274443,59.76179245
68.37049743,66.67860206,59.79416810
68.37264151,66.82783019,59.81046312
68.42870926,66.95808319,59.91091338
68.42292024,67.03741424,59.98016724
68.49967839,67.20551029,59.91370069
68.60956261,67.35849057,60.06732419
68.62532161,67.46880360,60.13925815
68.69050172,67.62703688,60.24431818
68.57547170,67.49549743,60.12071184
68.01404374,66.69457547,59.63132504
67.53730703,65.73220412,59.10141509
67.29738422,65.12521441,58.92409949
67.22255575,64.90115780,58.81346484
67.20915523,64.81142796,58.80649657
67.20390223,64.74678388,58.80510292
67.21419383,64.76029160,58.80789022
67.27454974,64.82386364,58.86245712
67.34283877,64.92860206,58.92838765
67.35141509,64.94682676,58.90094340
67.34380360,64.92292024,58.91713122
67.33383362,64.93632075,58.88722127
67.40383791,65.00889794,58.93750000
67.49303173,65.15448113,58.99260292
67.62671527,65.34991424,59.11813894
67.70701115,65.51661664,59.22223413
67.77787307,65.69596913,59.22062607
67.84348199,65.83962264,59.33897942
67.88036021,65.97384220,59.36342196
67.94446827,66.15523156,59.46054889
68.02058319,66.26715266,59.52958834
68.07011149,66.44446827,59.61620926
68.15759005,66.60913379,59.69425386
68.18128216,66.72180532,59.68321184
68.24914237,66.92753002,59.81882504
68.29159520,67.04052316,59.88314751
68.35120069,67.23542024,59.94789880
68.46397942,67.39729846,60.05274443
68.55746141,67.55874786,60.11342196
68.63807890,67.69682676,60.23734991
68.19050172,67.15233705,59.82450686
67.50921955,66.05038593,59.17024014
67.04009434,64.99378216,58.70154374
66.82783019,64.48220412,58.49549743
66.68932247,64.16873928,58.36385077
66.65030017,64.05424528,58.35184391
66.56753859,63.89322470,58.28795026
66.59594768,63.87382075,58.35516724
66.66402230,63.95776158,58.40716123
66.73006003,64.02787307,58.46526587
66.74228130,64.06174957,58.44468268
66.71944683,64.07364923,58.42999571
66.72534305,64.07246998,58.43481990
66.76382933,64.14547599,58.45872642
66.89268868,64.31593053,58.50589623
66.99721269,64.49807033,58.60398799
67.11738851,64.65126501,58.68492710
67.21044168,64.83072470,58.75611063
67.28141081,65.00439537,58.80456690
67.36963979,65.13421955,58.90887650
67.39418954,65.26790309,58.95679674
67.47191252,65.39408233,58.97984563
67.57021870,65.58308319,59.09037307
67.62971698,65.73070326,59.17881647
67.68321184,65.88925815,59.22116209
67.77465695,66.07740137,59.34069468
67.80145798,66.25557461,59.43503431
67.80874786,66.42238422,59.44168096
67.90812607,66.57772298,59.53076758
68.01147084,66.71816038,59.62682247
68.09348199,66.88872213,59.71033448
68.19779160,67.09015866,59.83436964
68.03827187,66.99839194,59.69264580
67.39965695,66.13936535,59.11385077
66.84358919,64.96623070,58.61674528
66.51018439,64.19607633,58.25503859
66.34487564,63.82043310,58.13411235
66.30949828,63.69822041,58.09230274
66.26479417,63.61213551,58.09455403
66.20969125,63.55017153,58.02615780
66.27465695,63.55831904,58.08319039
66.36138508,63.65512436,58.09766295
66.36202830,63.68171098,58.14461835
66.35677530,63.69168096,58.12156947
66.33887221,63.67527873,58.14161664
66.37971698,63.71955403,58.13486278
66.51029160,63.86192110,58.28194683
66.62918096,64.05413808,58.41027015
66.72791595,64.23606346,58.47041166
66.84787736,64.41284305,58.50010720
66.92195540,64.56689537,58.53987993
66.99689108,64.71816038,58.58329760
67.08340480,64.88121784,58.70754717
67.16284305,65.04341767,58.79427530
67.21966123,65.18492710,58.80370926
67.31721698,65.35709691,58.93364065
67.34873499,65.48445540,58.92677959
67.45090051,65.67881647,59.02165523
67.46108491,65.85709691,59.11352916
67.59262436,66.05167238,59.22148370
67.63454117,66.20936964,59.30070755
67.71891081,66.39472556,59.40501715
67.77090480,66.51147084,59.46644511
67.88840051,66.76318611,59.60323756
67.65898370,66.53183962,59.38775729
67.00836192,65.53666381,58.79952830
66.46022727,64.46708834,58.31035592
66.18514151,63.81121355,58.00075043
66.11202830,63.56078473,57.91198542
66.10656089,63.46526587,57.93439108
66.04599057,63.38496998,57.90855489
66.04952830,63.34648370,57.91080617
66.14461835,63.43085334,57.94028731
66.20293739,63.51533019,57.97759434
66.21065609,63.55392367,58.01082762
66.18814322,63.51661664,58.04020154
66.18910806,63.52701544,57.96998285
66.22952401,63.58994425,57.99946398
66.35548885,63.75385935,58.11042024
66.44286021,63.91670240,58.22695111
66.59412521,64.10441681,58.33469125
66.68835763,64.31057033,58.38604202
66.78387650,64.47212693,58.45433105
66.89837050,64.61620926,58.51715266
66.92817324,64.75921955,58.58126072
67.03033877,64.94693396,58.69993568
67.09541166,65.08855060,58.75814751
67.19704117,65.26286449,58.81753859
67.26929674,65.44125214,58.94361063
67.28194683,65.61535163,58.89729846
67.40330189,65.80338765,59.07225557
67.45851201,65.97973842,59.07686535
67.53205403,66.16970412,59.25139365
67.68385506,66.39569039,59.33479846
67.79084477,66.60409520,59.47930961
67.71044168,66.56743139,59.42613636
67.08887221,65.76575901,58.82622213
66.51715266,64.67753002,58.24764151
66.20122213,63.93042453,57.95315180
66.05135077,63.61331475,57.85988422
66.05596055,63.55596055,57.88036021
66.05478130,63.55328045,57.87253431
66.09616209,63.54020154,57.95894082
66.20690395,63.65973413,58.00107204
66.27583619,63.74924957,58.05220840
66.26243568,63.76415094,58.01307890
66.23295455,63.75954117,58.05885506
66.22512864,63.76329331,58.05596055
66.27004717,63.80070755,58.09358919
66.38186106,63.95347341,58.16788165
66.48134648,64.11470840,58.24013722
66.58136792,64.32900943,58.29920669
66.69800600,64.51125643,58.39954974
66.81978988,64.69757719,58.53269726
66.86009863,64.85366638,58.59852058
66.92806604,65.01468696,58.60409520
66.98906518,65.14022298,58.68460549
67.08715695,65.31271441,58.76704545
67.14150943,65.46483705,58.84240995
67.21151372,65.67677959,58.92806604
67.23874357,65.86352916,58.93685678
67.31786021,65.99603345,59.05992710
67.04395369,65.69189537,58.84240995
66.45636792,64.74946398,58.29749142
66.04159520,63.82547170,57.85999142
65.77733705,63.35237993,57.66455832
65.76822470,63.21548027,57.65415952
65.78591338,63.17249142,57.71794597
65.80928388,63.18921527,57.72759434
65.92774443,63.30231561,57.79223842
66.03087479,63.46998285,57.85484563
66.03880789,63.50107204,57.84605489
66.00857633,63.48306175,57.84927101
65.99238851,63.44757719,57.83758576
66.01843911,63.47169811,57.86963979
66.08469125,63.57354202,57.89150943
66.21783877,63.76843911,58.04759863
66.34230274,63.94071612,58.14140223
66.45240137,64.15673242,58.16252144
66.54213122,64.31485849,58.24839194
66.62800172,64.46140652,58.35420240
66.70958405,64.62896655,58.35066467
66.71172813,64.72480703,58.41412950
66.77294168,64.85870497,58.54952830
66.86192110,65.01436535,58.65973413
66.96269297,65.21397942,58.67903087
67.01393654,65.38550600,58.70733276
67.10216552,65.53655660,58.80735420
67.14515437,65.74614065,58.88722127
66.84412521,65.42088336,58.65415952
66.17367067,64.36492281,58.01179245
65.66091338,63.34058748,57.55885506
65.35838336,62.75053602,57.28955832
65.27787307,62.56282161,57.23134648
65.28719983,62.46901801,57.24603345
65.26693825,62.43246141,57.23777873
65.31700257,62.41927530,57.27390652
65.40608919,62.56946827,57.37950257
65.41005575,62.61653087,57.36181389
65.39258148,62.60055746,57.38507719
65.39247427,62.59165952,57.33158233
65.41702401,62.61106346,57.33340480
65.49120926,62.71440823,57.48113208
65.62542882,62.89622642,57.58297599
65.74849914,63.07246998,57.67174099
65.82482847,63.24335334,57.75793310
65.93096055,63.42624357,57.78709262
66.02969554,63.60109348,57.83908662
66.12671527,63.72598628,57.92624357
66.20583190,63.86663808,58.01179245
66.30939108,64.04266724,58.05188679
66.35774014,64.17141938,58.15619640
66.41959691,64.36685249,58.16680961
66.49839194,64.49946398,58.30478130
66.58887221,64.71344340,58.35002144
66.68481990,64.88228988,58.43374786
66.74667667,65.08051029,58.51811750
66.83168954,65.25943396,58.62392796
66.90769726,65.43385506,58.66284305
66.95100772,65.53334048,58.76661664
67.01972556,65.74099485,58.81132075
67.11084906,65.94125214,58.94168096
67.01018439,65.86695969,58.77605060
66.26693825,64.86342196,58.19382504
65.61342196,63.58983705,57.59476844
65.15330189,62.68246141,57.18267581
64.94157376,62.22866638,57.07364923
64.88121784,62.02315609,56.97084048
64.78773585,61.82632933,56.84455403
64.75278731,61.70990566,56.84069468
64.77626501,61.69693396,56.89569039
64.85859777,61.78848628,56.89268868
64.94060892,61.88572041,57.03859348
64.92013293,61.88475557,56.98038165
64.89708405,61.88186106,56.95325901
64.92785163,61.90683962,56.98531304
65.01468696,62.01340051,57.06871784
65.14086621,62.20540309,57.21333619
65.23702830,62.39890652,57.28719983
65.39719125,62.62853774,57.38797170
65.48177530,62.80660377,57.43010292
65.57900943,62.96601630,57.54213122
65.65437393,63.10077187,57.61106346
65.78066038,63.26972556,57.64258148
65.91487993,63.45390223,57.74742710
65.97212693,63.59391081,57.81303602
66.09326758,63.78494854,57.86963979
66.19382504,63.98048885,58.00921955
66.27487136,64.13550600,58.04909949
66.36138508,64.30992710,58.17227702
66.44264580,64.49174528,58.23274014
66.48981561,64.70400943,58.30756861
66.60420240,64.91616638,58.41252144
66.66841767,65.10409520,58.43942967
66.78966552,65.31174957,58.59541166
66.77229846,65.36963979,58.62692967
66.20626072,64.65973413,58.11771012
65.54663379,63.44307461,57.46665952
65.01993997,62.49592624,57.04373928
64.81968268,62.00128645,56.96526587
64.76876072,61.82793739,56.85816895
64.76232847,61.74024443,56.88925815
64.71119211,61.63872213,56.80081475
64.72566467,61.64976415,56.82965266
64.81164237,61.73381218,56.90619640
64.87039022,61.82665094,56.95229417
64.89322470,61.83447684,56.96076329
64.88925815,61.86095626,56.98424099
64.93192539,61.88218268,57.01640223
65.02605060,62.02154803,57.03419811
65.15373070,62.19854202,57.14279588
65.25932676,62.35237993,57.25375214
65.36127787,62.57311321,57.33876501
65.52454974,62.78719983,57.45551029
65.64397513,62.98295455,57.56828902
65.73810034,63.16948971,57.64719125
65.80060034,63.28923671,57.68439108
65.90244425,63.45969125,57.79095197
66.01704545,63.60516724,57.78269726
66.14922813,63.81282161,57.95433105
66.25525300,64.03505575,58.05328045
66.37199828,64.23606346,58.14622642
66.39150943,64.34712693,58.16209262
66.04245283,63.94103774,57.88872213
65.41187822,62.98906518,57.36835334
64.94168096,62.16745283,57.02015437
64.84208834,61.79020154,56.88175386
64.83897942,61.73134648,56.86299314
64.84240995,61.69961407,56.89022298
64.88153945,61.72888079,56.89719125
64.97684391,61.85334477,56.99313894
65.13379074,62.04352487,57.14279588
65.15780446,62.09969983,57.12671527
65.15019297,62.13518439,57.11738851
65.13829331,62.16938250,57.15051458
65.20915523,62.24431818,57.20036449
65.33780017,62.42377787,57.29041595
65.46087050,62.63754288,57.36374357
65.62114065,62.89708405,57.50943396
65.68010292,63.06325043,57.60763293
65.85034305,63.28816467,57.68439108
65.98156089,63.51586621,57.83211835
66.10581046,63.71665952,57.94350343
66.23370497,63.90287307,57.99335334
66.31250000,64.07707976,58.05242281
66.39697684,64.28827187,58.13668525
66.43353345,64.45990566,58.22598628
66.53580617,64.67795883,58.32118353
66.65759005,64.89065180,58.42216981
66.73810034,65.14140223,58.56271441
66.83587050,65.38389794,58.63797170
66.93867925,65.58855060,58.70518868
67.01672384,65.81067753,58.80531732
67.12971698,66.00536021,58.87885935
67.24174528,66.21280017,59.03269726
67.30113636,66.50225129,59.09616209
67.43739280,66.69811321,59.27808748
67.18203259,66.46440823,59.04073756
66.39290309,65.45786878,58.32450686
65.88904374,64.43707118,57.87596484
65.64665523,63.79952830,57.64772727
65.72705832,63.58404803,57.59626930
65.77379931,63.55896226,57.58704974
65.78141081,63.56678816,57.61481561
65.82182676,63.61856775,57.68396226
65.94768439,63.70969125,57.77058319
65.97545026,63.79813465,57.77219125
65.98006003,63.76350772,57.81174957
65.92367067,63.71119211,57.73692110
65.93374786,63.71612350,57.74463979
65.96998285,63.75128645,57.75643225
66.03076758,63.88089623,57.85152230
66.17560034,64.08383362,57.92753002
66.20711835,64.29759863,58.06625214
66.30703259,64.44446827,58.08233276
66.42034734,64.62639365,58.18321184
66.45904803,64.73584906,58.27165523
66.50739708,64.91670240,58.31807461
66.54738422,65.06367925,58.33576329
66.58083190,65.16616638,58.42066895
66.69961407,65.31518010,58.49721269
66.76725986,65.51297170,58.58972985
66.87650086,65.71012007,58.71247856
66.92988851,65.84005146,58.78301887
66.64268868,65.55671098,58.49431818
66.02615780,64.62650086,57.99485420
65.65962693,63.69286021,57.60945540
65.54363208,63.24774871,57.39418954
65.53719983,63.14976415,57.41884648
65.53366209,63.12735849,57.41895369
65.54041595,63.11760292,57.43942967
65.61642367,63.17388508,57.47684391
65.68546312,63.32439966,57.56582333
65.73810034,63.36224271,57.55177959
65.74238851,63.38475557,57.58394082
65.72566467,63.36738851,57.57900943
65.74807033,63.37885935,57.61127787
65.82504288,63.47019726,57.66852487
65.91037736,63.63143225,57.71312178
66.02508576,63.83769297,57.78687822
66.11074185,64.00825472,57.87081904
66.21912521,64.16959691,57.98070326
66.25268010,64.36267153,58.08801458
66.31496569,64.55638937,58.14472556
66.38357633,64.70390223,58.21462264
66.46762436,64.88143225,58.30767581
66.50536021,65.03559177,58.30188679
66.58897942,65.17581475,58.42753002
66.66659520,65.40180103,58.51650943
66.75921955,65.59069468,58.61749571
66.83554889,65.76672384,58.70154374
66.92088336,65.98649228,58.78816467
67.02208405,66.17817324,58.85977702
67.10827616,66.37028302,58.98391938
67.24431818,66.57279160,59.12039022
67.28537736,66.73134648,59.20047170
67.40158662,66.91552316,59.31260720
67.47394940,67.09852058,59.29899228
67.56217839,67.27251286,59.45626072
67.14622642,66.85827616,59.09991424
66.29470412,65.65319468,58.40941252
65.72877358,64.50964837,57.83297599
65.53162521,63.78762864,57.56421527
65.57643654,63.54856346,57.48488422
65.56775300,63.44018010,57.51972556
65.53730703,63.35977702,57.46783877
65.52626501,63.28612779,57.45743997
65.56925386,63.31989708,57.49871355
65.60591767,63.37071184,57.49142367
65.61213551,63.36620926,57.54373928
65.60902659,63.32450686,57.53784305
65.55842624,63.27562178,57.45765437
65.58747856,63.30746141,57.51565180
65.64140223,63.39976415,57.50996998
65.79684820,63.60023585,57.66434391
65.88572041,63.77272727,57.79802744
65.98552744,63.95358062,57.88689966
66.06850343,64.12146226,57.88475557
66.12360635,64.27304889,57.99217410
66.15490995,64.41069897,58.08930103
66.25364494,64.56710978,58.09519726
66.26993997,64.70304460,58.14708405
66.32064751,64.83072470,58.16670240
66.39751286,64.96333619,58.30810463
66.50150086,65.13807890,58.39065180
66.58855060,65.33340480,58.48606346
66.67484991,65.52347770,58.54363208
66.76511578,65.75289451,58.67442110
66.81496569,65.92131218,58.72770154
66.91284305,66.07343482,58.80113636
66.98767153,66.25075043,58.91327187
67.10002144,66.45722556,58.96601630
67.13389794,66.54942110,59.03569897
66.67785163,66.05778302,58.66713122
65.92152659,64.84648370,58.01393654
65.44811321,63.80424528,57.48263293
65.29706261,63.17699400,57.27905232
65.24678388,62.95604631,57.23070326
65.25643225,62.89815609,57.25771870
65.24271012,62.85162950,57.26650943
65.26286449,62.83833619,57.25021441
65.33029588,62.90405232,57.25353774
65.37532161,62.93492710,57.32193396
65.37092624,62.96312178,57.33276158
65.33994425,62.93664237,57.27497856
65.34080189,62.93900086,57.26811750
65.39826329,63.00075043,57.30692539
65.52133362,63.15212264,57.43342624
65.63872213,63.31196398,57.53987993
65.74099485,63.48799314,57.59219554
65.88625643,63.72373499,57.75589623
65.92570755,63.91027015,57.82429245
66.01993997,64.07118353,57.82504288
66.10313036,64.24442539,57.95325901
66.16327187,64.43964408,58.06678816
66.27851630,64.62714408,58.16552316
66.31689537,64.77572899,58.16252144
66.41069897,64.95894082,58.28484134
66.49614065,65.14365352,58.37843053
66.54481132,65.34819897,58.39301029
66.69018010,65.56024871,58.56282161
66.77637221,65.75000000,58.67302744
66.92002573,65.96655232,58.80102916
67.01715266,66.18224700,58.89665523
67.07536449,66.33394082,58.96751715
66.62156947,65.90759005,58.62821612
65.89483276,64.78355489,57.99088765
65.37446398,63.76768868,57.43921527
65.25653945,63.17206261,57.28398370
65.26157804,63.03194683,57.16530875
65.28269726,62.99817753,57.25439537
65.30017153,63.02144082,57.25750429
65.40373070,63.12221269,57.34219554
65.49946398,63.21730274,57.40426672
65.54674099,63.28430532,57.40823328
65.48231132,63.23509863,57.42484991
65.42753002,63.18181818,57.30681818
65.43417667,63.21462264,57.36771012
65.48466981,63.29041595,57.39954974
65.61685249,63.43524871,57.52551458
65.75675386,63.66884648,57.62960978
65.85924099,63.86417238,57.76640223
65.94768439,64.10849057,57.84090909
66.03141081,64.27219125,57.89440395
66.09884220,64.44339623,58.03559177
66.09594768,64.53591338,58.01725986
66.18010292,64.72084048,58.11084906
66.25825472,64.87446398,58.14311750
66.36653087,65.05049314,58.29427530
66.46505146,65.24056604,58.36642367
66.30553173,65.21440823,58.26565180
65.81271441,64.47652230,57.82322041
65.22641509,63.43589194,57.25557461
64.94050172,62.71108491,56.93857204
64.83426244,62.40137221,56.89879931
64.84380360,62.37789451,56.93535592
64.88153945,62.38904374,56.94157376
64.99303173,62.47716552,56.95315180
65.13507719,62.67517153,57.10763293
65.16262864,62.73016724,57.13325472
65.13904374,62.72652230,57.12446398
65.11138508,62.69114494,57.09165952
65.10216552,62.70551029,57.07707976
65.18171098,62.75996998,57.14247427
65.29824185,62.94768439,57.20733276
65.44961407,63.13979417,57.34476844
65.58319039,63.38550600,57.51114923
65.67742281,63.56292882,57.59830617
65.78623499,63.73091767,57.64815609
65.85259434,63.90834048,57.69500429
65.87403516,64.05027873,57.78226844
65.99206690,64.21376501,57.89858491
66.06710978,64.38400515,57.99078045
66.11352916,64.56614494,58.03248285
66.23070326,64.77251286,58.14579760
66.28430532,64.93396226,58.14601201
66.41573756,65.14451115,58.27530017
66.49506861,65.32096913,58.36685249
66.62542882,65.53752144,58.51050600
66.70068611,65.71162093,58.58940823
66.73220412,65.87971698,58.68739280
66.82182676,66.09862779,58.77508576
66.95947684,66.27315609,58.87435678
66.69403945,66.04738422,58.63314751
65.72427101,64.84648370,57.86792453
65.08951544,63.49024443,57.25525300
64.77712264,62.56678816,56.73038165
64.58983705,62.14879931,56.62692967
64.53634220,61.91348628,56.67056175
64.49817753,61.79663379,56.62960978
64.39086621,61.64601201,56.52251286
64.44382504,61.64129503,56.57847341
64.48734991,61.68739280,56.57632933
64.54266724,61.75836192,56.66337907
64.52958834,61.75750429,56.65994854
64.54213122,61.75932676,56.66284305
64.58233276,61.78216123,56.62178388
64.63936535,61.86921098,56.78816467
64.78001715,62.05874786,56.83319039
64.91884648,62.29084477,56.97780875
65.06239280,62.52915952,57.08233276
65.21247856,62.74978559,57.19918525
65.32793739,62.93642796,57.25182247
65.44403945,63.11213551,57.33940823
65.53494854,63.27315609,57.47126930
65.63078902,63.46247856,57.48349057
65.65276587,63.64311750,57.58179674
65.77058319,63.83404803,57.67860206
65.87564322,64.04395369,57.77572899
66.06367925,64.27701544,57.93439108
66.14000858,64.56603774,57.98563465
66.08533448,64.61921098,58.02122642
65.47705832,63.86149228,57.55124357
64.87907376,62.70154374,56.89515437
64.39569039,61.82879503,56.51447256
64.19050172,61.37253431,56.29191681
64.17367067,61.26951115,56.35098628
64.15566038,61.22212693,56.33769297
64.14858491,61.17174099,56.35806175
64.18996569,61.22620069,56.36642367
64.31346484,61.40437393,56.44682676
64.36653087,61.49946398,56.52712264
64.37382075,61.52733705,56.51125643
64.37446398,61.54813465,56.52412093
64.41573756,61.61063465,56.56818182
64.49882075,61.71858919,56.61974700
64.66359348,61.95561750,56.76222127
64.81603774,62.16573756,56.80274443
64.96408662,62.42356346,57.02240566
65.12028302,62.63507719,57.07354202
65.22984563,62.84412521,57.14215266
65.31603774,63.02701544,57.24399657
65.44082333,63.20990566,57.35827616
65.54030875,63.40265866,57.43782161
65.55917667,63.56089194,57.51393654
65.72330617,63.80521012,57.61331475
65.81346484,64.03323328,57.73134648
65.92045455,64.23949400,57.80746141
66.04491852,64.48166810,57.95615352
66.18085334,64.71087050,58.02969554
66.29674099,64.92088336,58.16809605
66.39826329,65.14354631,58.31014151
66.47051887,65.36374357,58.35452401
66.53795026,65.60463122,58.43224700
66.70647513,65.79995712,58.60784734
66.80488851,66.04438250,58.73992281
66.75707547,66.06046312,58.71247856
65.94671955,65.12725129,58.02069039
65.08479846,63.84766295,57.28998714
64.67881647,62.83919383,56.82504288
64.58619211,62.35570326,56.65930532
64.56818182,62.20904803,56.67688679
64.56228559,62.18063894,56.63089623
64.58930103,62.16841767,56.69650515
64.67356346,62.23016724,56.66734563
64.76500858,62.31110635,56.78409091
64.74957118,62.34348199,56.80445969
64.71923242,62.30842624,56.77454974
64.68181818,62.28066038,56.76672384
64.67988851,62.24571184,56.75064322
64.77069039,62.36760292,56.74560463
64.94436106,62.57386364,56.95551029
65.07139794,62.76715266,57.04566895
65.23306175,62.97341338,57.18546312
65.32772298,63.17099057,57.26661664
65.37853774,63.33415523,57.32171955
65.45808319,63.48188250,57.42935249
65.50257290,63.61921098,57.49892796
65.59380360,63.80992710,57.51340051
65.69629074,63.98617067,57.65705403
65.81603774,64.17452830,57.70647513
65.69489708,64.16337907,57.68717839
65.07997427,63.35870497,57.14301029
64.45969125,62.26672384,56.62178388
64.00932676,61.46022727,56.24903516
63.85012864,61.03494854,56.07590051
63.75482419,60.83072470,55.98659949
63.77669383,60.78870069,56.02755146
63.80092196,60.81764580,55.99603345
63.93900086,60.94478988,56.16520154
64.03173242,61.07525729,56.20175815
64.04974271,61.13443396,56.19596913
64.04942110,61.14804889,56.26254288
64.06893225,61.13175386,56.26297170
64.12628645,61.23284734,56.27787307
64.24603345,61.40233705,56.44093053
64.36052744,61.64011578,56.50010720
64.52508576,61.87156947,56.60956261
64.68782161,62.10506003,56.73413379
64.80928388,62.29877787,56.80135077
64.93449828,62.51168525,56.94779160
65.09755575,62.70368782,57.10398799
65.20947684,62.85313036,57.12821612
65.31775300,63.06303602,57.22813036
65.41959691,63.27637221,57.35377358
65.50836192,63.48048885,57.41016295
65.61320755,63.67774443,57.53301887
65.71172813,63.92463551,57.62189108
65.82943825,64.15791166,57.74367496
65.93642796,64.37467839,57.86803173
66.05553173,64.58833619,57.96526587
66.20272298,64.80392367,58.12146226
66.32525729,65.08426244,58.20733276
66.42131218,65.26779588,58.35420240
66.50621784,65.51222127,58.42452830
66.60270154,65.73692110,58.48241852
66.76661664,65.97502144,58.63797170
66.89279588,66.15866209,58.78837907
66.62843053,65.96505146,58.58683533
65.52926672,64.66348628,57.70808319
64.74410377,63.18321184,56.99110206
64.35752573,62.20722556,56.52347770
64.17903087,61.72019726,56.29716981
64.16541595,61.52304889,56.31786021
64.09144511,61.40083619,56.28055317
64.05713979,61.29277444,56.22995283
64.08801458,61.26125643,56.24367496
64.13218268,61.31721698,56.29470412
64.20175815,61.39515437,56.29073756
64.20347341,61.42688679,56.36084906
64.22662950,61.41423671,56.41702401
64.23767153,61.45958405,56.34830617
64.33018868,61.57397084,56.51136364
64.46430103,61.79191681,56.59959262
64.64440395,62.03055317,56.70786878
64.78527015,62.21751715,56.83715695
64.92013293,62.44200257,56.96708834
65.05563894,62.65619640,57.06550172
65.19071612,62.83865780,57.13561321
65.29899228,63.06142796,57.24581904
65.39322470,63.22362779,57.29781304
65.49656947,63.41080617,57.41552316
65.60045026,63.59744854,57.50868353
65.69457547,63.86524443,57.59937822
65.82815180,64.09659091,57.73145369
65.96001286,64.34980703,57.89333190
66.03677101,64.60859777,58.01382933
66.18106775,64.82900943,58.08286878
66.29942110,65.03141081,58.26061321
66.41252144,65.25107204,58.31968268
66.55027873,65.52069039,58.43406947
66.68589194,65.77251286,58.61878216
66.52240566,65.72823756,58.49817753
65.54867067,64.59841338,57.74463979
64.85495283,63.33608491,57.01725986
64.47577187,62.37585763,56.59498285
64.31646655,61.92903087,56.42945969
64.30692539,61.80306604,56.42013293
64.32461407,61.78880789,56.42881647
64.35484563,61.81110635,56.47362779
64.44393225,61.89804889,56.57407804
64.52347770,62.03355489,56.67570755
64.54373928,62.08640652,56.66123499
64.56678816,62.08994425,56.65362350
64.53291166,62.05735420,56.61202830
64.60270154,62.12264151,56.71226415
64.70969125,62.25557461,56.79159520
64.82547170,62.47126930,56.85591767
65.01500858,62.71526587,57.02508576
65.20218696,62.97319897,57.10077187
65.29963551,63.20400943,57.28355489
65.39386792,63.42774443,57.36556604
65.47437822,63.62146226,57.41477273
65.53816467,63.79095197,57.50514580
65.64944254,63.98970840,57.65523156
65.73070326,64.22255575,57.73949400
65.89215266,64.44253859,57.89322470
65.90973413,64.63614923,57.83876501
65.59326758,64.30896226,57.65051458
64.85816895,63.29298885,56.97652230
64.33619211,62.27229846,56.50600343
64.05874786,61.66466552,56.20111492
63.98091767,61.45068611,56.19511149
64.02122642,61.44318182,56.20068611
64.10045026,61.49539022,56.28183962
64.26350772,61.68910806,56.40823328
64.40651801,61.89493997,56.58190395
64.44629074,61.95079331,56.57386364
64.43021012,61.96087050,56.56678816
64.39461835,61.93599914,56.49367496
64.41209262,61.95111492,56.52272727
64.53398370,62.08565609,56.62274871
64.67163379,62.31893225,56.71408662
64.81710978,62.54781304,56.84433962
64.99078045,62.77444254,56.96505146
65.15834048,63.04856346,57.14354631
65.23777873,63.22577187,57.24249571
65.32182676,63.42238422,57.24785592
65.39472556,63.61213551,57.40458834
65.47555746,63.79738422,57.47748714
65.59530446,63.99753431,57.61738851
65.70604631,64.18481990,57.70433105
65.84412521,64.44575472,57.78773585
65.92163379,64.66262864,57.90555317
66.04331046,64.88036021,58.00278731
66.19350343,65.11481561,58.10988422
66.26993997,65.36513722,58.22898799
66.43138937,65.59498285,58.40523156
66.51918954,65.81442967,58.45872642
66.68674957,66.07204117,58.61856775
66.76650943,66.24399657,58.70004288
66.10452401,65.58136792,58.23081046
64.94286021,64.07686535,57.27969554
64.31968268,62.72019726,56.64751286
64.02615780,61.88121784,56.26672384
63.88068182,61.49388937,56.13925815
63.82933105,61.34155232,56.02808748
63.80145798,61.24614065,56.00343053
63.78280446,61.18975129,56.00643225
63.85741852,61.20819039,56.06260720
63.94221698,61.30864065,56.17356346
63.98863636,61.37156947,56.19210978
63.97995283,61.38304031,56.20872642
63.97309177,61.40040738,56.16605918
64.00503859,61.43128216,56.19264580
64.13153945,61.60709691,56.27240566
64.28945111,61.79631218,56.38207547
64.47105489,62.04266724,56.54459691
64.59841338,62.24742710,56.68503431
64.74581904,62.48016724,56.78612779
64.86310034,62.68235420,56.84980703
64.95819039,62.84069468,56.98070326
65.03494854,63.05488851,57.02701544
65.13400515,63.27615780,57.12971698
65.18171098,63.42656518,57.22137650
65.30145798,63.65608919,57.31818182
65.44028731,63.83587050,57.44521870
65.56560892,64.11063465,57.59369640
65.71044168,64.36888937,57.74346055
65.55617496,64.36963979,57.60463122
64.80831904,63.47041166,57.04974271
64.10002144,62.17806604,56.32171955
63.63218268,61.27519297,55.89333190
63.40683962,60.80992710,55.71966123
63.38518439,60.67592196,55.70443825
63.36878216,60.56861063,55.72941681
63.38443396,60.57654374,55.72684391
63.46172813,60.63475557,55.78634220
63.58790738,60.79223842,55.90051458
63.65094340,60.90415952,55.95904803
63.66498714,60.92635077,55.96365780
63.66316467,60.92838765,55.93846484
63.69779160,60.98531304,55.96880360
63.80328045,61.13046741,56.05113636
63.96794597,61.35345197,56.19864923
64.12585763,61.60270154,56.26993997
64.29909949,61.87585763,56.39794168
64.47105489,62.10227273,56.58769297
64.62757290,62.35034305,56.69854202
64.70797599,62.52958834,56.77036878
64.82322041,62.73788593,56.91627358
64.96247856,62.94168096,57.02894511
65.02915952,63.13786449,57.10741852
65.17195540,63.40737564,57.19446827
65.31110635,63.62671527,57.33962264
65.39547599,63.88518439,57.46751715
65.54105918,64.14247427,57.57407804
65.68771441,64.39826329,57.70207976
65.85741852,64.66445111,57.84669811
65.99560463,64.93771441,58.03162521
66.07515009,65.18707118,58.11545883
66.26897513,65.46966123,58.24088765
66.38078902,65.66723842,58.40951973
66.50771870,65.90844768,58.50385935
66.62403516,66.15576758,58.63346913
66.81367925,66.42409949,58.80746141
66.46730274,66.13454117,58.48788593
65.22973842,64.76683105,57.49153087
64.43374786,63.43696398,56.83619211
64.04566895,62.51243568,56.43224700
63.99935678,62.13207547,56.26050600
64.03666381,62.05253002,56.25000000
64.07193396,62.06850343,56.30027873
64.19253859,62.10999142,56.40437393
64.29416810,62.27744425,56.54781304
64.35602487,62.36974700,56.54213122
64.33083190,62.37349914,56.55874786
64.31153516,62.33126072,56.49935678
64.29277444,62.30027873,56.51554460
64.33190395,62.33469125,56.51822470
64.46730274,62.51940395,56.64633362
64.56089194,62.71698113,56.77487136
64.71172813,62.94350343,56.91262864
64.83361921,63.19596913,56.99785592
64.93728559,63.42356346,57.14118782
65.09766295,63.60473842,57.18171098
65.18632075,63.83168954,57.31174957
65.22041166,63.98477702,57.35849057
65.29759863,64.12542882,57.45926244
65.32686535,64.29256003,57.50675386
65.48445540,64.49088765,57.63389794
65.54138079,64.67988851,57.71097770
65.69939966,64.93739280,57.86899657
65.57504288,64.90244425,57.76286449
64.78773585,63.99635506,57.13057461
64.10849057,62.83147513,56.52787307
63.74142367,61.96312178,56.12907376
63.67538593,61.60334477,55.95390223
63.69682676,61.55145798,55.94961407
63.75600343,61.55724700,56.00257290
63.89890652,61.69457547,56.12189108
64.05928388,61.88689966,56.23252573
64.16316467,62.01629503,56.36578045
64.13250429,62.03623499,56.38164666
64.09026587,61.99313894,56.32697256
64.07643654,61.97287736,56.27926672
64.10645369,62.03162521,56.32150515
64.19939966,62.20261578,56.42367067
64.34573328,62.44414666,56.59187393
64.49817753,62.69478988,56.65984134
64.63529160,62.89022298,56.82375643
64.78677101,63.13539880,56.88582762
64.89290309,63.35066467,57.02369211
64.95132933,63.55638937,57.17988851
65.08093911,63.72223413,57.24946398
65.11792453,63.89579760,57.29116638
65.24013722,64.10012864,57.39622642
65.32032590,64.27058319,57.54566895
65.48123928,64.51447256,57.65083619
65.57868782,64.76608062,57.75943396
65.75257290,65.00364494,57.92881647
65.85548885,65.25107204,58.06132075
65.95861921,65.47277015,58.09819897
66.15844768,65.71548027,58.25021441
66.27690823,65.91605918,58.42099057
66.43021012,66.13754288,58.51297170
66.53312607,66.36717410,58.66262864
66.72341338,66.59648370,58.79845626
66.70593911,66.64826329,58.76833190
65.59991424,65.55831904,57.92688679
64.40834048,63.96087050,56.89333190
63.85291595,62.67388508,56.39215266
63.66295026,61.96933962,56.04952830
63.61578045,61.67259863,55.98349057
63.64408233,61.54095197,55.96269297
63.61374357,61.40533877,55.91198542
63.58812178,61.29609777,55.93867925
63.61738851,61.28248285,55.95615352
63.63078902,61.31689537,55.93782161
63.62317753,61.30435249,55.97437822
63.60741852,61.25514580,55.98241852
63.59562607,61.23992281,55.93825043
63.66016295,61.29781304,55.93910806
63.76382933,61.43385506,56.04556175
63.93632075,61.61470840,56.17195540
64.10259434,61.80671098,56.32493568
64.25600343,62.04524014,56.43181818
64.34819897,62.27915952,56.48113208
64.50289451,62.51254288,56.66927530
64.51500858,62.64451115,56.73734991
64.65651801,62.83962264,56.79395369
64.75300172,63.05188679,56.93996569
64.85002144,63.24003002,57.00996998
64.93942967,63.50182247,57.09723413
65.07300600,63.72266295,57.24903516
65.24313894,63.98327616,57.38829331
65.39601201,64.23220412,57.54180961
65.52615780,64.45861921,57.64622642
65.63443396,64.72084048,57.75750429
65.75235849,64.94704117,57.89879931
65.90759005,65.22277015,57.97469983
66.07064751,65.49517581,58.15683962
66.01704545,65.49217410,58.14654803
65.05092196,64.46494425,57.31528731
64.15233705,63.03505575,56.54641938
63.70636792,61.94457547,56.10731132
63.55692539,61.37403516,55.89290309
63.52197684,61.15298027,55.82193396
63.49539022,61.08243997,55.80049314
63.52240566,61.07472127,55.82579331
63.59090909,61.11985420,55.84669811
63.70561750,61.23006003,55.95111492
63.78548456,61.30949828,55.98874357
63.77583619,61.32515009,56.03098199
63.73606346,61.29909949,56.00921955
63.74120926,61.30274443,56.02122642
63.82879503,61.40255146,56.02283448
63.98316895,61.63089623,56.16348628
64.14708405,61.83962264,56.28816467
64.33844340,62.08544168,56.51382933
64.47105489,62.33726415,56.56668096
64.58233276,62.57246998,56.70561750
64.66723842,62.75343053,56.81003431
64.77744425,62.94554031,56.92538593
64.79266724,63.17109777,56.94125214
64.89493997,63.34948542,57.03130360
65.03387650,63.54138079,57.15051458
65.17967410,63.77165523,57.30295883
65.30746141,64.04524014,57.39022298
65.15319468,64.00225129,57.28677101
64.38539880,63.02905232,56.72394940
63.75428816,61.93074614,56.11985420
63.39461835,61.10945540,55.68149657
63.24667667,60.72416381,55.56635935
63.25107204,60.67216981,55.53194683
63.31871784,60.70422384,55.61202830
63.42602916,60.83855060,55.74442539
63.63807890,61.07975986,55.91659520
63.71505146,61.20004288,55.91337907
63.71151372,61.20293739,55.95015009
63.66080617,61.16788165,55.91295026
63.66209262,61.15373070,55.94596913
63.73016724,61.26704545,56.02197684
63.89129503,61.44382504,56.12114065
64.04545455,61.66895369,56.24399657
64.20015009,61.90298027,56.38411235
64.31442967,62.11524443,56.45615352
64.46644511,62.34423242,56.58930103
64.57418525,62.59133791,56.73863636
64.61492281,62.74206690,56.77508576
64.75192967,62.96440823,56.86556604
64.83190395,63.12392796,56.93181818
64.92334906,63.32729417,57.05070755
65.01554460,63.51404374,57.12960978
65.14022298,63.73799314,57.27680103
65.14740566,63.96001286,57.26168525
65.31550172,64.20979846,57.46708834
65.50064322,64.44018010,57.58640652
65.62821612,64.67452830,57.68803602
65.71129931,64.91455832,57.82364923
65.80853345,65.07482847,57.93910806
65.95218696,65.36406518,58.05295883
66.08812178,65.58276158,58.15759005
65.82407804,65.35731132,57.99281732
64.66316467,64.02851630,57.06174957
63.74539022,62.49731990,56.27755146
63.32204117,61.38507719,55.77422813
63.16252144,60.84026587,55.54695540
63.14794168,60.64644082,55.47598628
63.12360635,60.50782590,55.48359777
63.10313036,60.42688679,55.50600343
63.13143225,60.44403945,55.49656947
63.19275300,60.49914237,55.57482847
63.24989280,60.55542453,55.58780017
63.22598628,60.56946827,55.53409091
63.23574185,60.57686535,55.61352916
63.24614065,60.59712693,55.60827616
63.34980703,60.70765437,55.66713122
63.48927959,60.89451115,55.79674099
63.66573756,61.13765009,55.91702401
63.81657376,61.37339194,56.05735420
63.97191252,61.57654374,56.14086621
64.11084906,61.79159520,56.26072041
64.21601630,61.98038165,56.39011578
64.27036878,62.12135506,56.42045455
64.39558319,62.33340480,56.57654374
64.44232419,62.54395369,56.61213551
64.62296312,62.77926672,56.77798027
64.69200257,62.94972127,56.84530446
64.85012864,63.20090051,56.99078045
64.97512864,63.43246141,57.08704974
65.09176672,63.66702401,57.25664666
65.16927530,63.87939537,57.29406089
65.32568611,64.12714408,57.44897084
65.44125214,64.33361921,57.56496569
65.53634220,64.56207118,57.66198542
65.64386792,64.78387650,57.79223842
65.77540738,65.05263722,57.88518439
65.86760292,65.24174528,58.00761149
65.93138937,65.38850772,58.05381647
64.92785163,64.40876930,57.26554460
63.93213979,62.88818611,56.39311750
63.40801887,61.66788165,55.94403945
63.23670669,61.04738422,55.62500000
63.19168096,60.78816467,55.56196398
63.20272298,60.75139365,55.55756861
63.20615352,60.70165094,55.55049314
63.24271012,60.71762436,55.61363636
63.38057461,60.87135506,55.72126930
63.47384220,60.97813036,55.81046312
63.43942967,60.95572470,55.76275729
63.43010292,60.93503431,55.74056604
63.42281304,60.94511149,55.73563465
63.49078045,61.02015437,55.74506861
63.66380789,61.23156089,55.95197256
63.80006432,61.44993568,56.09723413
63.96054889,61.72191252,56.15415952
64.05081475,61.92302744,56.20454545
64.24313894,62.15373070,56.45411664
64.33897942,62.36792453,56.59669811
64.46119211,62.59476844,56.63357633
64.58436964,62.82943825,56.75482419
64.66445111,62.97834477,56.81174957
64.76575901,63.19264580,56.92120497
64.82482847,63.38593482,57.03237564
64.99774871,63.66734563,57.12639365
65.13271870,63.91487993,57.29952830
65.20283019,64.06946827,57.39386792
64.69436106,63.63089623,56.94393225
63.82525729,62.42002573,56.19746998
63.26715266,61.32547170,55.66187822
63.05756861,60.71730274,55.36974700
62.97652230,60.52647942,55.35323756
63.05671098,60.52433533,55.43707118
63.16219983,60.59316038,55.54427530
63.33286878,60.80713979,55.68578473
63.47695111,61.01061321,55.83780017
63.51372213,61.11084906,55.83855060
63.49045883,61.09637650,55.77047599
63.42860206,61.01479417,55.70990566
63.46762436,61.05017153,55.73306175
63.52583619,61.17720840,55.80392367
63.71837479,61.39033019,56.02176244
63.89290309,61.63732847,56.13261149
64.04845626,61.87199828,56.26951115
64.13175386,62.09551887,56.29556175
64.24860635,62.30478130,56.44500429
64.37768010,62.52004717,56.58329760
64.36149228,62.71740995,56.62092624
64.48981561,62.90340909,56.75975557
64.59573328,63.08329760,56.84787736
64.73306175,63.28194683,56.88186106
64.82354202,63.47898799,57.02358491
64.91680961,63.68803602,57.15694683
65.05585334,63.93621355,57.28312607
65.16455832,64.13840051,57.37424957
65.28119640,64.38153945,57.46022727
65.42881647,64.67345626,57.60806175
65.57064751,64.87253431,57.78441252
65.70518868,65.13078902,57.87006861
65.85388079,65.33629931,57.99517581
65.98113208,65.57997427,58.13979417
65.92195540,65.59391081,58.15394511
64.82472127,64.47394940,57.21537307
63.66091338,62.85173671,56.23981561
63.09830617,61.59637650,55.72845197
62.95368782,60.90651801,55.36042024
62.88957976,60.63679245,55.35034305
62.90608919,60.55553173,55.36492281
62.89493997,60.49849914,55.30960549
62.92892367,60.49195969,55.31893225
63.01897513,60.55949828,55.39762007
63.07665094,60.63754288,55.51340051
63.08458405,60.64376072,55.47394940
63.05660377,60.62542882,55.45561750
63.05671098,60.62360635,55.48381218
63.10816895,60.66820326,55.51254288
63.27765866,60.83983705,55.62714408
63.41273585,61.06518010,55.72770154
63.52755146,61.27197684,55.82236278
63.70175815,61.50986278,55.95411664
63.78291166,61.73081046,56.09487564
63.91487993,61.94511149,56.19039451
64.03334048,62.11352916,56.32043310
64.11856775,62.34176672,56.35677530
64.21033448,62.47362779,56.50000000
64.32257719,62.68750000,56.54749142
64.41273585,62.92560034,56.64451115
64.52787307,63.10849057,56.75214408
64.68031732,63.40373070,56.90072899
64.80220840,63.64054460,57.04577616
64.96462264,63.89279588,57.17131218
65.05306604,64.12317753,57.28505575
65.20626072,64.37242710,57.44918525
65.31635935,64.63003859,57.58822899
65.47652230,64.85752573,57.70336621
65.64075901,65.12424957,57.80756861
65.77058319,65.35141509,57.90694683
65.51265009,65.18331904,57.71376501
64.26779588,63.77787307,56.73220412
63.38593482,62.33276158,55.99614065
63.07204117,61.35956261,55.48241852
62.95111492,60.91552316,55.38207547
62.95797599,60.75686106,55.26650943
62.96408662,60.74431818,55.31142796
63.03098199,60.77111921,55.41734563
63.15437393,60.84648370,55.50407376
63.26500858,60.97705832,55.56239280
63.28987993,61.04395369,55.63100343
63.25686106,61.05445969,55.60527444
63.19832762,61.01908233,55.56582333
63.24635506,61.05681818,55.61063465
63.35452401,61.21129931,55.68085334
63.50514580,61.41402230,55.88829331
63.66863208,61.65469554,55.98338336
63.85913379,61.91788165,56.13936535
63.92870926,62.18213979,56.20486707
64.10302316,62.39719125,56.38968696
64.22973842,62.62253431,56.48488422
64.27980274,62.84283877,56.59412521
64.37928816,63.07933105,56.71869640
64.47941681,63.24056604,56.73220412
64.59187393,63.43964408,56.84337479
64.75032161,63.68707118,56.99110206
64.86996141,63.92613636,57.15340909
64.94307461,64.12403516,57.18256861
64.34090909,63.52701544,56.67431389
63.42077616,62.27562178,56.00804031
62.91316467,61.21762436,55.44168096
62.75986278,60.69210978,55.23006003
62.73123928,60.50032161,55.15426672
62.82879503,60.56442967,55.22759434
63.00246569,60.73188250,55.34187393
63.17431389,60.96076329,55.51114923
63.27873070,61.11599485,55.62049743
63.32182676,61.18696398,55.73456261
63.25986278,61.15094340,55.62500000
63.20422384,61.09466123,55.65233705
63.21880360,61.10323756,55.57729417
63.32311321,61.22491424,55.67345626
63.46397942,61.40330189,55.82461407
63.55027873,61.69135935,55.81721698
63.74421098,61.93138937,56.06174957
63.88807890,62.15458834,56.16144940
64.03376930,62.39011578,56.31250000
64.08158233,62.63797170,56.38604202
64.19746998,62.82054031,56.47341338
64.29234563,63.01232847,56.61996141
64.33640652,63.17324185,56.70047170
64.47909520,63.37746569,56.75954117
64.56485849,63.55328045,56.88797170
64.68331904,63.81282161,57.00428816
64.79320326,64.00568182,57.11224271
64.88925815,64.17978130,57.21837479
65.02047599,64.39654803,57.28977273
65.21494425,64.67206261,57.51361492
65.43171098,64.96344340,57.68364065
65.43021012,65.06228559,57.70379503
64.35409520,63.91948971,56.80713979
63.20154374,62.32547170,55.87521441
62.65072899,61.16102058,55.25042882
62.47523585,60.49431818,55.00182247
62.47062607,60.23542024,54.95111492
62.48081046,60.11031304,54.99238851
62.44575472,60.03987993,55.01436535
62.47695111,60.04534734,54.99646226
62.56014151,60.14547599,55.08093911
62.60506003,60.20068611,55.05017153
62.58994425,60.17463551,55.03226844
62.58544168,60.14483276,55.06721698
62.60720412,60.15887650,55.07289880
62.68460549,60.23091767,55.11771012
62.78602058,60.40330189,55.28066038
62.95658233,60.63111063,55.34530446
63.13979417,60.86084906,55.48606346
63.24571184,61.06989708,55.56303602
63.38840051,61.28248285,55.73402659
63.48499142,61.45240137,55.81861063
63.57364923,61.60752573,55.92484991
63.61663808,61.83747856,55.93353345
63.73359777,62.01618782,56.04041595
63.84090909,62.22555746,56.18524871
63.91262864,62.42656518,56.31743139
64.08694254,62.63647084,56.33672813
64.19468268,62.89729846,56.48713551
64.32825901,63.11084906,56.64065180
64.41573756,63.33040309,56.73048885
64.55306604,63.55606775,56.86438679
64.62178388,63.79459691,56.94382504
64.77229846,63.99035163,57.09626930
64.91016295,64.25921955,57.21912521
64.92238422,64.32975986,57.20904803
63.99678388,63.38979417,56.45475986
62.93514151,61.80799743,55.56271441
62.41680961,60.61513722,55.01693825
62.22469983,59.93953688,54.72662950
62.13164666,59.67216981,54.60377358
62.12542882,59.58597770,54.61470840
62.10784734,59.51243568,54.65373070
62.13400515,59.51179245,54.63078902
62.22888079,59.59616209,54.70958405
62.29942110,59.69221698,54.80413808
62.33951544,59.73874357,54.77776587
62.28934391,59.69693396,54.77326329
62.32675815,59.71933962,54.79524014
62.38143225,59.78430532,54.86642367
62.53762864,59.99045883,54.99410377
62.68396226,60.22469983,55.14729846
62.87414237,60.47105489,55.24764151
63.02594340,60.70668954,55.38529160
63.14579760,60.86642367,55.52530017
63.28248285,61.10516724,55.59959262
63.37167667,61.30628216,55.67292024
63.47223413,61.49388937,55.75782590
63.55831904,61.70218696,55.87349914
63.64804889,61.86031304,55.99689108
63.75589623,62.09594768,56.10366638
63.89365352,62.35205832,56.25150086
64.03987993,62.59862779,56.36170669
64.18674957,62.88143225,56.47641509
64.32632933,63.14086621,56.62800172
64.46365780,63.36781732,56.78441252
64.58844340,63.62167667,56.87703688
64.70593911,63.86438679,57.01018439
64.87885935,64.15394511,57.14086621
64.98649228,64.38078902,57.28816467
64.54373928,63.98692110,56.90415952
63.38604202,62.56142796,55.91841767
62.57021870,61.19693396,55.23810034
62.26457976,60.35827616,54.80617496
62.23188250,60.01147084,54.77583619
62.24731990,59.95379503,54.74924957
62.29716981,59.97620069,54.83083190
62.37081904,60.03827187,54.89504717
62.52647942,60.16991852,54.94693396
62.59594768,60.27798027,55.04856346
62.59316038,60.30885506,55.03098199
62.56207118,60.26511578,54.99131647
62.55424528,60.25407376,54.94875643
62.60913379,60.30403087,55.04631218
62.74303173,60.49474700,55.19178816
62.88454117,60.70186535,55.25611063
63.04577616,60.95079331,55.43771441
63.18278302,61.19864923,55.47909520
63.26715266,61.41230703,55.69039451
63.39804889,61.63947256,55.76189966
63.47148370,61.82139794,55.81067753
63.59187393,61.99646226,55.97673671
63.64461835,62.16841767,56.06292882
63.70518868,62.36406518,56.16295026
63.82600772,62.54470412,56.21880360
63.94854202,62.78194683,56.29974271
64.04877787,62.97094768,56.42099057
63.64376072,62.61310034,56.09873499
62.76811750,61.42742281,55.29513293
62.15973413,60.29588336,54.82225557
61.88872213,59.59605489,54.48627787
61.83040309,59.37993139,54.35634648
61.86138508,59.35988422,54.42013293
61.91991852,59.41991852,54.46408662
62.08737136,59.59616209,54.67549314
62.24957118,59.80145798,54.81239280
62.27830189,59.88550600,54.73177530
62.23906518,59.87006861,54.77765866
62.20754717,59.81046312,54.69746998
62.18374786,59.79909949,54.66916810
62.32364923,59.95250858,54.83887221
62.49324614,60.14161664,54.96708834
62.67956690,60.41241424,55.10838336
62.85077187,60.65008576,55.24356775
62.94950686,60.85302316,55.36481561
63.09423242,61.06378645,55.43535592
63.14472556,61.23434820,55.48927959
63.23970840,61.43160377,55.65737564
63.31292882,61.58608491,55.70358062
63.40566038,61.78666381,55.78966552
63.48466981,61.97459262,55.92163379
63.60656089,62.15866209,56.02229846
63.70497427,62.35784734,56.04373928
63.81400086,62.55713979,56.15019297
63.94189537,62.80360206,56.32761578
64.04373928,62.99421098,56.45111492
64.17356346,63.20336621,56.48466981
64.27680103,63.44361063,56.67560034
64.43063894,63.69007290,56.83051029
64.56035592,63.91863208,56.92806604
64.17131218,63.61170669,56.59777015
62.89579760,62.08619211,55.50192967
62.07965266,60.56314322,54.75761149
61.69307461,59.55885506,54.35109348
61.51618782,59.07150515,54.08844340
61.45443825,58.87017581,54.03291166
61.41734563,58.76511578,54.04620497
61.41466552,58.68267581,54.01050600
61.45690395,58.68653516,54.04545455
61.55167238,58.79652659,54.14858491
61.61695969,58.89397513,54.19950686
61.60859777,58.90512436,54.20422384
61.60152230,58.89890652,54.17249142
61.64772727,58.94982847,54.24249571
61.80574614,59.12907376,54.35956261
61.92903087,59.29288165,54.44318182
62.07161235,59.53816467,54.57418525
62.27337050,59.76951115,54.74914237
62.41809605,60.00257290,54.87028302
62.55274443,60.22084048,54.97084048
62.65941252,60.42292024,55.04963551
62.75804031,60.59401801,55.14011578
62.86106346,60.79759863,55.26072041
62.96805317,61.01779588,55.37542882
63.08672813,61.20915523,55.46987564
63.21344340,61.45658233,55.56335763
63.33008148,61.67763722,55.67828045
63.47362779,61.93632075,55.82439966
63.60034305,62.20025729,55.97062607
63.75675386,62.42356346,56.06378645
63.85248714,62.65780446,56.22684391
64.01018439,62.89054460,56.38003859
64.20304460,63.16788165,56.48370497
64.23059605,63.30092196,56.54277444
63.39633362,62.53891509,55.91455832
62.27572899,61.01179245,55.02251286
61.72191252,59.76758148,54.31625214
61.42699400,59.09423242,54.08029588
61.31796741,58.80231561,54.03451973
61.33533448,58.72169811,54.02144082
61.31668096,58.66059177,53.92602916
61.38336192,58.63486278,54.01286449
61.48863636,58.77079760,54.09048027
61.59916381,58.92956690,54.21665952
61.60205832,58.95754717,54.20604631
61.61213551,58.95411664,54.20283019
61.62210549,58.97373499,54.19093053
61.67978130,59.04470412,54.26061321
61.86331475,59.28055317,54.39654803
62.01565180,59.51822470,54.55960549
62.20518868,59.76093482,54.62349914
62.33812178,60.05381647,54.79802744
62.51618782,60.27540738,54.94564751
62.68642796,60.52412093,55.02690823
62.76157804,60.70347341,55.13379074
62.88786449,60.93932247,55.27358491
63.00214408,61.15716123,55.38893654
63.15212264,61.39611921,55.58694254
63.26736707,61.61535163,55.66337907
63.37135506,61.86642367,55.77058319
63.50686106,62.11620926,55.90587479
63.66455832,62.32900943,56.01961835
63.80317324,62.58126072,56.17838765
63.88346913,62.81528731,56.22502144
64.04309605,63.12950257,56.38400515
64.21397942,63.38572041,56.54824185
64.16423671,63.48434820,56.51608062
63.20936964,62.51983276,55.76061321
62.15951973,61.04416810,54.91573756
61.65651801,59.86470840,54.36706690
61.48456261,59.33404803,54.08190395
61.49506861,59.17131218,54.09391081
61.51725986,59.15683962,54.07064751
61.57450686,59.19350343,54.17828045
61.68471269,59.28634220,54.27712264
61.81121355,59.43964408,54.37253431
61.82386364,59.48788593,54.38346913
61.79481132,59.47598628,54.35506003
61.83361921,59.46998285,54.36728130
61.83694254,59.50568182,54.37617925
61.90673242,59.61856775,54.45240137
62.08351201,59.83479846,54.57515009
62.28398370,60.08865780,54.74238851
62.46140652,60.33833619,54.88722127
62.56389365,60.55874786,54.96955403
62.64536878,60.77058319,55.10849057
62.76704545,60.96194254,55.20143654
62.80756861,61.12768010,55.24989280
62.88529160,61.30831904,55.34777015
62.96933962,61.48520583,55.45240137
63.08233276,61.70819039,55.59669811
63.20786878,61.91627358,55.63754288
62.85656089,61.63250429,55.41616638
62.02915952,60.55553173,54.65844768
61.45486707,59.48209691,54.10902659
61.16520154,58.80542453,53.84380360
61.07225557,58.54309605,53.72727273
61.10752573,58.56228559,53.77476415
61.18750000,58.61095626,53.89569039
61.37660806,58.82922384,54.06700257
61.54706261,59.03033877,54.13111063
61.56099914,59.10109348,54.15448113
61.53548456,59.09101630,54.11374357
61.51168525,59.05177959,54.09959262
61.54588336,59.09519726,54.13722127
61.68900086,59.25696827,54.25032161
61.80928388,59.42978130,54.32214837
61.99313894,59.69575472,54.56217839
62.12542882,59.93031732,54.66209262
62.28087479,60.14901372,54.82054031
62.44864923,60.40641081,54.87853774
62.52851630,60.59691252,54.97384220
62.58179674,60.76382933,55.05349485
62.65812607,60.93063894,55.12274871
62.76650943,61.12607204,55.29952830
62.87800172,61.34198113,55.35570326
62.96558748,61.55092196,55.48981561
63.05928388,61.72266295,55.56571612
63.15726844,61.92635077,55.66284305
63.26104202,62.13732847,55.77154803
63.37671527,62.35248714,55.87821612
63.57686535,62.58887221,56.09444683
63.72523585,62.85452401,56.14247427
63.75750429,63.00450257,56.23692110
63.13153945,62.43085334,55.71365780
61.93771441,60.84980703,54.72673671
61.26468696,59.41069897,53.98295455
60.91691681,58.58651372,53.59659091
60.76018439,58.16477273,53.46816038
60.72362779,57.98349057,53.46012007
60.69103774,57.84584048,53.40973413
60.67034734,57.76983276,53.33951544
60.73885077,57.80360206,53.43696398
60.84551887,57.96730274,53.52197684
60.86117067,58.03162521,53.49388937
60.89043739,58.04759863,53.58276158
60.91273585,58.04716981,53.57268439
60.95057890,58.12703688,53.63647084
61.11127787,58.32783019,53.73027444
61.25761149,58.56271441,53.92699400
61.42838765,58.81260720,54.03966552
61.57997427,59.02830189,54.14386792
61.74849914,59.25107204,54.32032590
61.88904374,59.46172813,54.43364065
61.98048885,59.63593482,54.47234134
62.07890223,59.83469125,54.61449400
62.21944683,60.06593053,54.68364065
62.36331475,60.25868353,54.74710549
62.46858919,60.49774871,54.88046741
62.59187393,60.68642796,55.03419811
62.72105489,60.98563465,55.12628645
62.85045026,61.20808319,55.33265437
63.00771870,61.43889365,55.45883362
63.12617925,61.67442110,55.52926672
63.23906518,61.90072899,55.66102058
63.33265437,62.14333190,55.77197684
63.45090051,62.37843053,55.92753002
63.61792453,62.63379074,56.01157804
63.65791166,62.76683105,56.09144511
62.89376072,62.06657376,55.48574185
61.79384648,60.50632504,54.55006432
61.20336621,59.21301458,53.86545883
60.87307033,58.49078045,53.55167238
60.74624786,58.20829760,53.44543310
60.75450257,58.07504288,53.46097770
60.70615352,57.94607633,53.43213979
60.72695111,57.95229417,53.41284305
60.80403087,58.01736707,53.49228130
60.90190823,58.16005575,53.59337479
60.96172813,58.20872642,53.64783448
60.93739280,58.21698113,53.61127787
60.97159091,58.25546741,53.63647084
61.02497856,58.32943825,53.66670240
61.19361063,58.54695540,53.82011149
61.33972985,58.80478130,53.94050172
61.54159520,59.03559177,54.10548885
61.72309177,59.28955832,54.24110206
61.88271870,59.51608062,54.40694683
61.99174528,59.74903516,54.49153087
62.12403516,59.96773156,54.62982419
62.20668954,60.13957976,54.63186106
62.32354202,60.33769297,54.77251286
62.38036021,60.51715266,54.88314751
62.51457976,60.72705832,54.98006003
62.65415952,60.96033448,55.07911664
62.82750858,61.28205403,55.26168525
62.97384220,61.55531732,55.38743568
62.84884220,61.46269297,55.31732419
61.90866209,60.45690395,54.56067753
61.13786449,59.19146655,53.85463122
60.75385935,58.38807890,53.41144940
60.60506003,58.00278731,53.23327616
60.58265437,57.97287736,53.25975557
60.66144940,57.98542024,53.36985420
60.75793310,58.04202401,53.43181818
60.94875643,58.27701544,53.59326758
61.02958834,58.45797599,53.69554031
61.06164237,58.52819468,53.68985849
61.03827187,58.54170240,53.69822041
61.05392367,58.56185678,53.71129931
61.12810892,58.65212264,53.78677101
61.29363208,58.84123070,53.91477273
61.48188250,59.07815180,54.01554460
61.65362350,59.35237993,54.22437822
61.85473842,59.63432676,54.36588765
61.98917238,59.85966981,54.52304889
62.08522727,60.07879503,54.55649657
62.19328902,60.28655660,54.69478988
62.28827187,60.48981561,54.80156518
62.41873928,60.71012007,54.96891081
62.53591338,60.91970412,55.01811750
62.67549314,61.18921527,55.15298027
62.75868353,61.41091338,55.19371784
62.90898370,61.66605918,55.36803173
63.06614494,61.93106775,55.51597341
63.17270583,62.19972127,55.68578473
63.32354202,62.45497427,55.80360206
63.47255575,62.71162093,55.98070326
63.70283019,63.07246998,56.22148370
63.93417667,63.45475986,56.34819897
64.16777444,63.74989280,56.55992710
64.29180961,63.97705832,56.70626072
63.48584906,63.32632933,56.05831904
62.10023585,61.67549314,54.95443825
61.26940395,60.29792024,54.19757719
60.99410377,59.53591338,53.83008148
60.98595626,59.23338336,53.77326329
61.04159520,59.12307033,53.76801029
61.09262436,59.10248714,53.86385077
61.17206261,59.13218268,53.85388079
61.27819468,59.25268010,53.93449828
61.27487136,59.32075472,53.95132933
61.28162521,59.29963551,53.94114494
61.25782590,59.20122213,53.90598199
61.23713551,59.19210978,53.91337907
61.26736707,59.24442539,53.92195540
61.38379074,59.41102058,54.07204117
61.56560892,59.63872213,54.22748714
61.70593911,59.87446398,54.38218268
61.83490566,60.08147513,54.46826758
61.96033448,60.28559177,54.59712693
62.06635935,60.48445540,54.61974700
62.14343911,60.63915094,54.69489708
62.23552744,60.82493568,54.87467839
62.31057033,61.01082762,54.92249142
62.38529160,61.16316467,55.00064322
62.48359777,61.34551887,55.12274871
62.63132504,61.58029588,55.29813465
62.77101201,61.83855060,55.38743568
62.76029160,61.90587479,55.37607204
62.00364494,61.09155232,54.78108919
61.13336192,59.73777873,53.90887650
60.59133791,58.59884220,53.39279588
60.37950257,58.02980274,53.13250429
60.31207118,57.81421527,53.08222556
60.30510292,57.73756432,53.08168954
60.30735420,57.69264580,53.08222556
60.35849057,57.74914237,53.14622642
60.53141081,57.88411235,53.26618782
60.59509005,58.00503859,53.30756861
60.61728130,58.03666381,53.32975986
60.62960978,58.06164237,53.38904374
60.65973413,58.08490566,53.37607204
60.72416381,58.22030446,53.47373499
60.88486278,58.42045455,53.57482847
61.06421527,58.62146226,53.72137650
61.21665952,58.88968696,53.84015866
61.38915094,59.12692967,54.06453688
61.54620497,59.32707976,54.17141938
61.63550600,59.51522298,54.25686106
61.72459262,59.72223413,54.32622213
61.82954545,59.91316467,54.41680961
61.95701115,60.12939537,54.47137650
61.99163808,60.26436535,54.58662093
62.12778731,60.51179245,54.66423671
62.25439537,60.77026158,54.90748285
62.37103345,60.99324614,54.99238851
62.50911235,61.25203688,55.10066467
62.68364065,61.48295455,55.25804031
62.81786021,61.74238851,55.36781732
62.98338336,62.02647942,55.53205403
63.10527444,62.28795026,55.66445111
63.26415094,62.53859348,55.77787307
63.39536878,62.75257290,55.92367067
63.50546741,62.97695111,56.07836621
63.68535592,63.21987564,56.22737993
63.83351201,63.46194254,56.31743139
63.64997856,63.36331475,56.19500429
62.40115780,62.02915952,55.15008576
61.32129074,60.38282590,54.29298885
60.85130789,59.14890652,53.65105060
60.62489280,58.49839194,53.39890652
60.58051029,58.19050172,53.29663379
60.54127358,58.10216552,53.31550172
60.51608062,58.00107204,53.28945111
60.54245283,58.01307890,53.27701544
60.62864494,58.08790738,53.40008576
60.67656518,58.14333190,53.38754288
60.69757719,58.16927530,53.40941252
60.69650515,58.16563036,53.39697684
60.73595626,58.18857204,53.43385506
60.81421527,58.27283448,53.51918954
60.97116209,58.47137650,53.65469554
61.14204545,58.70615352,53.82686535
61.32665094,58.97394940,53.93428388
61.47319897,59.23006003,54.08662093
61.61738851,59.43578473,54.16477273
61.72963122,59.65394511,54.29223842
61.81250000,59.83715695,54.35152230
61.95551029,60.08136792,54.55370926
61.99560463,60.26340051,54.59873499
62.10302316,60.46944683,54.71708834
62.25707547,60.68010292,54.84176672
62.37317753,60.90705403,54.90769726
62.50921955,61.17838765,55.07011149
62.64000858,61.38915094,55.19361063
62.79052316,61.69811321,55.35313036
62.93471269,61.91798885,55.50954117
63.03151801,62.17860206,55.55295883
63.21773156,62.45572470,55.74474700
63.34230274,62.70936964,55.82665094
63.45915523,62.89397513,56.01725986
62.71119211,62.16852487,55.35162950
61.48370497,60.65480274,54.36385077
60.84605489,59.33619211,53.66487993
60.58383362,58.52808748,53.38100343
60.53183962,58.23016724,53.24539022
60.53784305,58.13754288,53.32472127
60.56593053,58.14183105,53.33822899
60.61781732,58.16927530,53.38282590
60.79234563,58.37017581,53.45465266
60.89837050,58.46740995,53.56367925
60.89247427,58.53291166,53.58522727
60.87328473,58.55060034,53.56646655
60.88882933,58.54341767,53.58587050
60.96569468,58.62650086,53.64408233
61.12521441,58.82418525,53.75107204
61.31142796,59.09530446,53.89547599
61.48820755,59.35334477,54.03752144
61.58265437,59.62703688,54.25653945
61.76436535,59.87800172,54.41702401
61.90383791,60.13518439,54.44393225
62.01114923,60.37650086,54.58662093
62.09530446,60.60559605,54.73466981
62.24699828,60.79009434,54.81560892
62.32107633,60.98852916,54.95786878
62.39944254,61.18053173,54.97920240
62.56035592,61.44286021,55.15876930
62.74078045,61.70475986,55.37178388
62.88325472,62.00396655,55.48081046
62.89665523,62.11170669,55.46290738
61.99335334,61.23584906,54.77701544
61.13550600,59.92238422,53.99699828
60.68771441,58.86824614,53.43578473
60.49271012,58.35763293,53.29738422
60.49817753,58.25010720,53.30199400
60.55478130,58.26125643,53.30821184
60.69082333,58.37521441,53.41487993
60.88368353,58.62510720,53.60709691
60.99324614,58.79127358,53.67785163
61.03741424,58.85087907,53.69521870
60.99217410,58.83801458,53.61052744
60.95475986,58.81925386,53.62264151
60.97405660,58.83962264,53.59755575
61.08490566,58.96848199,53.74078045
61.25117925,59.22094768,53.90105060
61.38261149,59.44307461,53.99045883
